[SUMMARY]
Software Information
Software Name:	UVProbe
Version:	2.43
Mode:	Normal Mode

Data Information
Data is:	Original
Analyst:	
Date/Time:	23/02/2023 18:56:09
Comments:	

Instrument Information
Instrument Name:	SolidSpec3700
Instrument Type:	SolidSpec-3700 Series
Model (S/N):	SolidSpec3700 ( A11085100264CZ )

[METHOD]
[Measurement Properties]
Wavelength Range (nm.):	285,00 to 1600,00
Scan Speed:	Medium
Sampling Interval:	1,0
Auto Sampling Interval:	Disabled
Scan Mode:	Single

[Sample Preparation Properties]
Weight:	
Volume:	
Dilution:	
Path Length:	
Additional Information:	

[Instrument Properties]
Instrument Type:	SolidSpec-3700 Series
Measuring Mode:	Reflectance
Slit Width:	5,0 nm
Time Constant:	1,0 sec.
Source Lamp:	Auto
Light Source Change Wavelength:	282,00 nm
Detector Unit:	Integral Sphere
Detector Change Wavelength:	900,00 nm  1650,00 nm
Grating Change Wavelength:	800,00 nm
S/R Exchange:	Inverse
Detector Lock:	Auto
Slit Program:	Fixed
Beam Mode:	Double
Stair Correction:	Disable

[Attachment Properties]
Attachment:	X-Y Stage
Sequence File:	Positions.xys

[Operation]
Threshold:	0,0010000
Points:	4
InterPolate:	Disabled
Average:	Disabled

[DATA]
Wavelength	Data
285.0	5.474
286.0	5.432
287.0	5.413
288.0	5.459
289.0	5.489
290.0	5.505
291.0	5.494
292.0	5.544
293.0	5.587
294.0	5.576
295.0	5.523
296.0	5.488
297.0	5.513
298.0	5.560
299.0	5.585
300.0	5.617
301.0	5.580
302.0	5.556
303.0	5.530
304.0	5.570
305.0	5.560
306.0	5.573
307.0	5.541
308.0	5.572
309.0	5.564
310.0	5.582
311.0	5.536
312.0	5.487
313.0	5.441
314.0	5.424
315.0	5.411
316.0	5.388
317.0	5.334
318.0	5.271
319.0	5.235
320.0	5.209
321.0	5.201
322.0	5.169
323.0	5.166
324.0	5.127
325.0	5.108
326.0	5.078
327.0	5.055
328.0	5.021
329.0	4.973
330.0	4.932
331.0	4.908
332.0	4.879
333.0	4.866
334.0	4.849
335.0	4.859
336.0	4.859
337.0	4.867
338.0	4.851
339.0	4.853
340.0	4.830
341.0	4.851
342.0	4.834
343.0	4.835
344.0	4.802
345.0	4.812
346.0	4.826
347.0	4.867
348.0	4.885
349.0	4.908
350.0	4.917
351.0	4.953
352.0	4.983
353.0	5.010
354.0	5.032
355.0	5.045
356.0	5.070
357.0	5.090
358.0	5.125
359.0	5.170
360.0	5.199
361.0	5.232
362.0	5.251
363.0	5.298
364.0	5.312
365.0	5.328
366.0	5.315
367.0	5.319
368.0	5.315
369.0	5.307
370.0	5.292
371.0	5.303
372.0	5.299
373.0	5.305
374.0	5.273
375.0	5.255
376.0	5.231
377.0	5.223
378.0	5.200
379.0	5.171
380.0	5.136
381.0	5.113
382.0	5.080
383.0	5.045
384.0	5.016
385.0	5.001
386.0	4.974
387.0	4.937
388.0	4.892
389.0	4.851
390.0	4.828
391.0	4.783
392.0	4.766
393.0	4.733
394.0	4.712
395.0	4.667
396.0	4.625
397.0	4.590
398.0	4.551
399.0	4.517
400.0	4.479
401.0	4.456
402.0	4.430
403.0	4.416
404.0	4.392
405.0	4.372
406.0	4.340
407.0	4.319
408.0	4.295
409.0	4.285
410.0	4.269
411.0	4.269
412.0	4.274
413.0	4.284
414.0	4.288
415.0	4.291
416.0	4.298
417.0	4.311
418.0	4.330
419.0	4.347
420.0	4.372
421.0	4.395
422.0	4.423
423.0	4.455
424.0	4.491
425.0	4.531
426.0	4.565
427.0	4.597
428.0	4.627
429.0	4.676
430.0	4.718
431.0	4.780
432.0	4.829
433.0	4.889
434.0	4.941
435.0	4.995
436.0	5.047
437.0	5.096
438.0	5.159
439.0	5.212
440.0	5.273
441.0	5.318
442.0	5.380
443.0	5.444
444.0	5.509
445.0	5.563
446.0	5.611
447.0	5.661
448.0	5.721
449.0	5.784
450.0	5.849
451.0	5.910
452.0	5.964
453.0	6.026
454.0	6.075
455.0	6.124
456.0	6.179
457.0	6.237
458.0	6.304
459.0	6.352
460.0	6.399
461.0	6.442
462.0	6.491
463.0	6.542
464.0	6.581
465.0	6.620
466.0	6.666
467.0	6.709
468.0	6.755
469.0	6.798
470.0	6.844
471.0	6.884
472.0	6.925
473.0	6.968
474.0	7.012
475.0	7.050
476.0	7.086
477.0	7.124
478.0	7.162
479.0	7.205
480.0	7.237
481.0	7.268
482.0	7.295
483.0	7.333
484.0	7.370
485.0	7.405
486.0	7.427
487.0	7.450
488.0	7.471
489.0	7.499
490.0	7.527
491.0	7.559
492.0	7.593
493.0	7.625
494.0	7.646
495.0	7.672
496.0	7.693
497.0	7.723
498.0	7.735
499.0	7.752
500.0	7.769
501.0	7.780
502.0	7.790
503.0	7.804
504.0	7.826
505.0	7.847
506.0	7.849
507.0	7.859
508.0	7.878
509.0	7.895
510.0	7.906
511.0	7.892
512.0	7.896
513.0	7.904
514.0	7.917
515.0	7.927
516.0	7.915
517.0	7.918
518.0	7.917
519.0	7.928
520.0	7.926
521.0	7.926
522.0	7.915
523.0	7.897
524.0	7.883
525.0	7.866
526.0	7.870
527.0	7.849
528.0	7.846
529.0	7.819
530.0	7.810
531.0	7.799
532.0	7.778
533.0	7.747
534.0	7.717
535.0	7.695
536.0	7.681
537.0	7.670
538.0	7.650
539.0	7.618
540.0	7.583
541.0	7.556
542.0	7.527
543.0	7.498
544.0	7.471
545.0	7.455
546.0	7.430
547.0	7.414
548.0	7.381
549.0	7.349
550.0	7.308
551.0	7.275
552.0	7.250
553.0	7.220
554.0	7.194
555.0	7.166
556.0	7.140
557.0	7.107
558.0	7.071
559.0	7.043
560.0	7.017
561.0	6.993
562.0	6.961
563.0	6.939
564.0	6.915
565.0	6.896
566.0	6.865
567.0	6.839
568.0	6.818
569.0	6.784
570.0	6.754
571.0	6.725
572.0	6.710
573.0	6.690
574.0	6.660
575.0	6.626
576.0	6.604
577.0	6.575
578.0	6.556
579.0	6.531
580.0	6.517
581.0	6.498
582.0	6.483
583.0	6.458
584.0	6.440
585.0	6.416
586.0	6.410
587.0	6.406
588.0	6.398
589.0	6.382
590.0	6.360
591.0	6.344
592.0	6.330
593.0	6.315
594.0	6.305
595.0	6.295
596.0	6.292
597.0	6.279
598.0	6.262
599.0	6.239
600.0	6.229
601.0	6.236
602.0	6.228
603.0	6.227
604.0	6.209
605.0	6.208
606.0	6.196
607.0	6.189
608.0	6.180
609.0	6.173
610.0	6.170
611.0	6.166
612.0	6.159
613.0	6.159
614.0	6.151
615.0	6.150
616.0	6.143
617.0	6.152
618.0	6.144
619.0	6.146
620.0	6.139
621.0	6.150
622.0	6.144
623.0	6.144
624.0	6.140
625.0	6.139
626.0	6.145
627.0	6.146
628.0	6.155
629.0	6.150
630.0	6.151
631.0	6.145
632.0	6.138
633.0	6.133
634.0	6.144
635.0	6.154
636.0	6.165
637.0	6.153
638.0	6.162
639.0	6.165
640.0	6.180
641.0	6.188
642.0	6.195
643.0	6.208
644.0	6.204
645.0	6.208
646.0	6.204
647.0	6.200
648.0	6.219
649.0	6.241
650.0	6.264
651.0	6.266
652.0	6.273
653.0	6.288
654.0	6.284
655.0	6.283
656.0	6.284
657.0	6.293
658.0	6.297
659.0	6.309
660.0	6.315
661.0	6.325
662.0	6.328
663.0	6.343
664.0	6.348
665.0	6.355
666.0	6.378
667.0	6.401
668.0	6.417
669.0	6.433
670.0	6.447
671.0	6.457
672.0	6.476
673.0	6.501
674.0	6.543
675.0	6.547
676.0	6.562
677.0	6.560
678.0	6.592
679.0	6.593
680.0	6.602
681.0	6.615
682.0	6.633
683.0	6.667
684.0	6.678
685.0	6.694
686.0	6.687
687.0	6.698
688.0	6.721
689.0	6.747
690.0	6.763
691.0	6.778
692.0	6.819
693.0	6.826
694.0	6.844
695.0	6.853
696.0	6.877
697.0	6.893
698.0	6.901
699.0	6.919
700.0	6.938
701.0	6.952
702.0	6.968
703.0	6.998
704.0	7.025
705.0	7.053
706.0	7.058
707.0	7.081
708.0	7.109
709.0	7.124
710.0	7.138
711.0	7.159
712.0	7.193
713.0	7.214
714.0	7.205
715.0	7.218
716.0	7.234
717.0	7.269
718.0	7.300
719.0	7.338
720.0	7.366
721.0	7.396
722.0	7.421
723.0	7.449
724.0	7.469
725.0	7.475
726.0	7.501
727.0	7.518
728.0	7.551
729.0	7.550
730.0	7.563
731.0	7.555
732.0	7.600
733.0	7.628
734.0	7.691
735.0	7.697
736.0	7.708
737.0	7.705
738.0	7.751
739.0	7.799
740.0	7.854
741.0	7.871
742.0	7.887
743.0	7.914
744.0	7.941
745.0	7.981
746.0	7.979
747.0	7.979
748.0	7.999
749.0	8.020
750.0	8.063
751.0	8.065
752.0	8.106
753.0	8.147
754.0	8.175
755.0	8.186
756.0	8.185
757.0	8.195
758.0	8.225
759.0	8.263
760.0	8.300
761.0	8.303
762.0	8.337
763.0	8.355
764.0	8.401
765.0	8.409
766.0	8.462
767.0	8.479
768.0	8.503
769.0	8.519
770.0	8.560
771.0	8.590
772.0	8.611
773.0	8.623
774.0	8.635
775.0	8.673
776.0	8.731
777.0	8.773
778.0	8.769
779.0	8.747
780.0	8.763
781.0	8.759
782.0	8.806
783.0	8.810
784.0	8.856
785.0	8.852
786.0	8.890
787.0	8.907
788.0	8.940
789.0	8.951
790.0	8.964
791.0	8.976
792.0	9.001
793.0	9.056
794.0	9.109
795.0	9.160
796.0	9.180
797.0	9.166
798.0	9.190
799.0	9.232
800.0	9.249
801.0	9.213
802.0	9.191
803.0	9.214
804.0	9.250
805.0	9.274
806.0	9.294
807.0	9.320
808.0	9.345
809.0	9.374
810.0	9.403
811.0	9.433
812.0	9.456
813.0	9.483
814.0	9.482
815.0	9.500
816.0	9.513
817.0	9.531
818.0	9.575
819.0	9.607
820.0	9.655
821.0	9.659
822.0	9.678
823.0	9.697
824.0	9.728
825.0	9.730
826.0	9.759
827.0	9.771
828.0	9.807
829.0	9.807
830.0	9.818
831.0	9.830
832.0	9.867
833.0	9.888
834.0	9.894
835.0	9.887
836.0	9.925
837.0	9.948
838.0	9.977
839.0	9.968
840.0	9.998
841.0	10.003
842.0	10.044
843.0	10.052
844.0	10.060
845.0	10.034
846.0	10.043
847.0	10.063
848.0	10.104
849.0	10.092
850.0	10.126
851.0	10.094
852.0	10.133
853.0	10.118
854.0	10.206
855.0	10.266
856.0	10.296
857.0	10.294
858.0	10.219
859.0	10.242
860.0	10.278
861.0	10.370
862.0	10.403
863.0	10.362
864.0	10.312
865.0	10.326
866.0	10.368
867.0	10.469
868.0	10.461
869.0	10.393
870.0	10.338
871.0	10.342
872.0	10.392
873.0	10.423
874.0	10.419
875.0	10.527
876.0	10.501
877.0	10.511
878.0	10.455
879.0	10.595
880.0	10.657
881.0	10.765
882.0	10.817
883.0	10.744
884.0	10.639
885.0	10.710
886.0	10.857
887.0	10.913
888.0	10.998
889.0	11.021
890.0	11.067
891.0	10.825
892.0	10.812
893.0	10.972
894.0	10.985
895.0	10.809
896.0	10.633
897.0	10.942
898.0	11.027
899.0	11.163
900.0	11.034
901.0	11.314
902.0	11.401
903.0	11.452
904.0	11.422
905.0	11.366
906.0	11.353
907.0	11.257
908.0	11.444
909.0	11.493
910.0	11.544
911.0	11.393
912.0	11.364
913.0	11.455
914.0	11.435
915.0	11.361
916.0	11.278
917.0	11.285
918.0	11.338
919.0	11.482
920.0	11.524
921.0	11.580
922.0	11.531
923.0	11.512
924.0	11.414
925.0	11.407
926.0	11.564
927.0	11.663
928.0	11.624
929.0	11.497
930.0	11.440
931.0	11.470
932.0	11.454
933.0	11.508
934.0	11.564
935.0	11.610
936.0	11.570
937.0	11.528
938.0	11.516
939.0	11.572
940.0	11.629
941.0	11.619
942.0	11.619
943.0	11.557
944.0	11.570
945.0	11.605
946.0	11.647
947.0	11.720
948.0	11.716
949.0	11.738
950.0	11.711
951.0	11.767
952.0	11.761
953.0	11.756
954.0	11.719
955.0	11.751
956.0	11.734
957.0	11.702
958.0	11.697
959.0	11.778
960.0	11.793
961.0	11.755
962.0	11.718
963.0	11.774
964.0	11.792
965.0	11.818
966.0	11.807
967.0	11.813
968.0	11.780
969.0	11.806
970.0	11.813
971.0	11.855
972.0	11.839
973.0	11.850
974.0	11.833
975.0	11.818
976.0	11.855
977.0	11.872
978.0	11.869
979.0	11.864
980.0	11.827
981.0	11.833
982.0	11.810
983.0	11.855
984.0	11.867
985.0	11.823
986.0	11.823
987.0	11.787
988.0	11.845
989.0	11.833
990.0	11.868
991.0	11.847
992.0	11.843
993.0	11.853
994.0	11.854
995.0	11.880
996.0	11.834
997.0	11.843
998.0	11.814
999.0	11.827
1000.0	11.854
1001.0	11.856
1002.0	11.859
1003.0	11.836
1004.0	11.845
1005.0	11.854
1006.0	11.860
1007.0	11.836
1008.0	11.827
1009.0	11.837
1010.0	11.872
1011.0	11.885
1012.0	11.880
1013.0	11.872
1014.0	11.869
1015.0	11.868
1016.0	11.851
1017.0	11.825
1018.0	11.806
1019.0	11.818
1020.0	11.848
1021.0	11.861
1022.0	11.860
1023.0	11.836
1024.0	11.823
1025.0	11.820
1026.0	11.833
1027.0	11.827
1028.0	11.810
1029.0	11.773
1030.0	11.772
1031.0	11.757
1032.0	11.791
1033.0	11.771
1034.0	11.790
1035.0	11.795
1036.0	11.807
1037.0	11.800
1038.0	11.789
1039.0	11.793
1040.0	11.814
1041.0	11.801
1042.0	11.793
1043.0	11.780
1044.0	11.769
1045.0	11.762
1046.0	11.755
1047.0	11.773
1048.0	11.780
1049.0	11.773
1050.0	11.759
1051.0	11.757
1052.0	11.748
1053.0	11.732
1054.0	11.716
1055.0	11.741
1056.0	11.762
1057.0	11.782
1058.0	11.761
1059.0	11.753
1060.0	11.738
1061.0	11.720
1062.0	11.718
1063.0	11.717
1064.0	11.728
1065.0	11.727
1066.0	11.716
1067.0	11.707
1068.0	11.699
1069.0	11.716
1070.0	11.699
1071.0	11.713
1072.0	11.698
1073.0	11.715
1074.0	11.703
1075.0	11.712
1076.0	11.711
1077.0	11.711
1078.0	11.688
1079.0	11.687
1080.0	11.691
1081.0	11.704
1082.0	11.699
1083.0	11.681
1084.0	11.666
1085.0	11.670
1086.0	11.665
1087.0	11.672
1088.0	11.675
1089.0	11.668
1090.0	11.669
1091.0	11.639
1092.0	11.637
1093.0	11.628
1094.0	11.643
1095.0	11.624
1096.0	11.596
1097.0	11.574
1098.0	11.597
1099.0	11.615
1100.0	11.618
1101.0	11.601
1102.0	11.600
1103.0	11.611
1104.0	11.604
1105.0	11.617
1106.0	11.587
1107.0	11.580
1108.0	11.566
1109.0	11.592
1110.0	11.597
1111.0	11.601
1112.0	11.584
1113.0	11.581
1114.0	11.557
1115.0	11.551
1116.0	11.553
1117.0	11.579
1118.0	11.591
1119.0	11.587
1120.0	11.576
1121.0	11.568
1122.0	11.573
1123.0	11.569
1124.0	11.575
1125.0	11.581
1126.0	11.579
1127.0	11.588
1128.0	11.584
1129.0	11.587
1130.0	11.560
1131.0	11.552
1132.0	11.554
1133.0	11.550
1134.0	11.555
1135.0	11.556
1136.0	11.581
1137.0	11.603
1138.0	11.605
1139.0	11.618
1140.0	11.625
1141.0	11.637
1142.0	11.626
1143.0	11.617
1144.0	11.614
1145.0	11.618
1146.0	11.612
1147.0	11.589
1148.0	11.607
1149.0	11.611
1150.0	11.629
1151.0	11.638
1152.0	11.637
1153.0	11.649
1154.0	11.630
1155.0	11.644
1156.0	11.662
1157.0	11.677
1158.0	11.674
1159.0	11.658
1160.0	11.651
1161.0	11.664
1162.0	11.686
1163.0	11.705
1164.0	11.711
1165.0	11.715
1166.0	11.718
1167.0	11.710
1168.0	11.697
1169.0	11.715
1170.0	11.726
1171.0	11.740
1172.0	11.733
1173.0	11.753
1174.0	11.756
1175.0	11.757
1176.0	11.746
1177.0	11.768
1178.0	11.776
1179.0	11.813
1180.0	11.802
1181.0	11.812
1182.0	11.809
1183.0	11.811
1184.0	11.826
1185.0	11.826
1186.0	11.843
1187.0	11.845
1188.0	11.849
1189.0	11.867
1190.0	11.872
1191.0	11.881
1192.0	11.890
1193.0	11.899
1194.0	11.912
1195.0	11.917
1196.0	11.929
1197.0	11.922
1198.0	11.931
1199.0	11.928
1200.0	11.953
1201.0	11.971
1202.0	11.998
1203.0	12.000
1204.0	11.994
1205.0	11.995
1206.0	12.011
1207.0	12.028
1208.0	12.046
1209.0	12.065
1210.0	12.080
1211.0	12.088
1212.0	12.076
1213.0	12.079
1214.0	12.099
1215.0	12.148
1216.0	12.165
1217.0	12.177
1218.0	12.172
1219.0	12.202
1220.0	12.219
1221.0	12.241
1222.0	12.240
1223.0	12.243
1224.0	12.246
1225.0	12.270
1226.0	12.299
1227.0	12.313
1228.0	12.338
1229.0	12.347
1230.0	12.354
1231.0	12.361
1232.0	12.377
1233.0	12.405
1234.0	12.423
1235.0	12.439
1236.0	12.460
1237.0	12.455
1238.0	12.467
1239.0	12.476
1240.0	12.507
1241.0	12.539
1242.0	12.541
1243.0	12.563
1244.0	12.568
1245.0	12.596
1246.0	12.597
1247.0	12.597
1248.0	12.612
1249.0	12.624
1250.0	12.639
1251.0	12.679
1252.0	12.719
1253.0	12.755
1254.0	12.764
1255.0	12.767
1256.0	12.786
1257.0	12.818
1258.0	12.841
1259.0	12.843
1260.0	12.853
1261.0	12.867
1262.0	12.887
1263.0	12.896
1264.0	12.910
1265.0	12.926
1266.0	12.945
1267.0	12.959
1268.0	12.982
1269.0	12.981
1270.0	13.019
1271.0	13.032
1272.0	13.056
1273.0	13.051
1274.0	13.076
1275.0	13.104
1276.0	13.127
1277.0	13.139
1278.0	13.167
1279.0	13.171
1280.0	13.184
1281.0	13.195
1282.0	13.236
1283.0	13.256
1284.0	13.257
1285.0	13.256
1286.0	13.279
1287.0	13.311
1288.0	13.354
1289.0	13.384
1290.0	13.390
1291.0	13.392
1292.0	13.387
1293.0	13.422
1294.0	13.451
1295.0	13.484
1296.0	13.481
1297.0	13.493
1298.0	13.525
1299.0	13.573
1300.0	13.607
1301.0	13.615
1302.0	13.615
1303.0	13.612
1304.0	13.641
1305.0	13.668
1306.0	13.709
1307.0	13.725
1308.0	13.776
1309.0	13.801
1310.0	13.838
1311.0	13.841
1312.0	13.839
1313.0	13.848
1314.0	13.882
1315.0	13.938
1316.0	13.968
1317.0	13.972
1318.0	13.984
1319.0	14.016
1320.0	14.044
1321.0	14.040
1322.0	14.047
1323.0	14.043
1324.0	14.079
1325.0	14.112
1326.0	14.147
1327.0	14.172
1328.0	14.169
1329.0	14.196
1330.0	14.236
1331.0	14.265
1332.0	14.278
1333.0	14.297
1334.0	14.302
1335.0	14.312
1336.0	14.333
1337.0	14.389
1338.0	14.429
1339.0	14.460
1340.0	14.477
1341.0	14.513
1342.0	14.512
1343.0	14.539
1344.0	14.541
1345.0	14.581
1346.0	14.574
1347.0	14.607
1348.0	14.617
1349.0	14.645
1350.0	14.635
1351.0	14.640
1352.0	14.671
1353.0	14.729
1354.0	14.757
1355.0	14.770
1356.0	14.780
1357.0	14.778
1358.0	14.780
1359.0	14.786
1360.0	14.846
1361.0	14.887
1362.0	14.905
1363.0	14.901
1364.0	14.913
1365.0	14.942
1366.0	14.983
1367.0	15.012
1368.0	15.074
1369.0	15.093
1370.0	15.120
1371.0	15.111
1372.0	15.146
1373.0	15.175
1374.0	15.201
1375.0	15.216
1376.0	15.254
1377.0	15.296
1378.0	15.325
1379.0	15.355
1380.0	15.371
1381.0	15.404
1382.0	15.403
1383.0	15.462
1384.0	15.491
1385.0	15.543
1386.0	15.547
1387.0	15.566
1388.0	15.605
1389.0	15.621
1390.0	15.679
1391.0	15.678
1392.0	15.706
1393.0	15.719
1394.0	15.759
1395.0	15.790
1396.0	15.818
1397.0	15.859
1398.0	15.946
1399.0	15.996
1400.0	16.038
1401.0	16.047
1402.0	16.053
1403.0	16.082
1404.0	16.086
1405.0	16.120
1406.0	16.159
1407.0	16.197
1408.0	16.255
1409.0	16.286
1410.0	16.317
1411.0	16.352
1412.0	16.349
1413.0	16.385
1414.0	16.418
1415.0	16.450
1416.0	16.473
1417.0	16.520
1418.0	16.545
1419.0	16.585
1420.0	16.572
1421.0	16.627
1422.0	16.658
1423.0	16.697
1424.0	16.705
1425.0	16.743
1426.0	16.773
1427.0	16.796
1428.0	16.780
1429.0	16.774
1430.0	16.791
1431.0	16.855
1432.0	16.892
1433.0	16.920
1434.0	16.920
1435.0	16.955
1436.0	17.000
1437.0	17.004
1438.0	17.002
1439.0	17.011
1440.0	17.059
1441.0	17.075
1442.0	17.082
1443.0	17.070
1444.0	17.099
1445.0	17.110
1446.0	17.139
1447.0	17.102
1448.0	17.150
1449.0	17.179
1450.0	17.252
1451.0	17.254
1452.0	17.243
1453.0	17.243
1454.0	17.258
1455.0	17.293
1456.0	17.296
1457.0	17.308
1458.0	17.301
1459.0	17.339
1460.0	17.366
1461.0	17.397
1462.0	17.393
1463.0	17.351
1464.0	17.374
1465.0	17.385
1466.0	17.416
1467.0	17.432
1468.0	17.426
1469.0	17.425
1470.0	17.414
1471.0	17.469
1472.0	17.527
1473.0	17.549
1474.0	17.550
1475.0	17.539
1476.0	17.521
1477.0	17.540
1478.0	17.501
1479.0	17.529
1480.0	17.501
1481.0	17.542
1482.0	17.555
1483.0	17.576
1484.0	17.585
1485.0	17.575
1486.0	17.538
1487.0	17.596
1488.0	17.609
1489.0	17.680
1490.0	17.647
1491.0	17.653
1492.0	17.621
1493.0	17.623
1494.0	17.631
1495.0	17.678
1496.0	17.669
1497.0	17.708
1498.0	17.659
1499.0	17.650
1500.0	17.620
1501.0	17.651
1502.0	17.680
1503.0	17.683
1504.0	17.689
1505.0	17.695
1506.0	17.733
1507.0	17.757
1508.0	17.742
1509.0	17.682
1510.0	17.672
1511.0	17.687
1512.0	17.722
1513.0	17.694
1514.0	17.706
1515.0	17.711
1516.0	17.755
1517.0	17.776
1518.0	17.806
1519.0	17.838
1520.0	17.856
1521.0	17.858
1522.0	17.856
1523.0	17.889
1524.0	17.885
1525.0	17.877
1526.0	17.870
1527.0	17.893
1528.0	17.928
1529.0	17.921
1530.0	17.948
1531.0	17.915
1532.0	17.920
1533.0	17.893
1534.0	17.942
1535.0	17.926
1536.0	17.929
1537.0	17.914
1538.0	17.909
1539.0	17.922
1540.0	17.891
1541.0	17.930
1542.0	17.946
1543.0	17.995
1544.0	18.023
1545.0	18.013
1546.0	18.029
1547.0	18.059
1548.0	18.109
1549.0	18.092
1550.0	18.114
1551.0	18.105
1552.0	18.151
1553.0	18.107
1554.0	18.135
1555.0	18.129
1556.0	18.168
1557.0	18.154
1558.0	18.146
1559.0	18.141
1560.0	18.198
1561.0	18.227
1562.0	18.193
1563.0	18.156
1564.0	18.155
1565.0	18.194
1566.0	18.246
1567.0	18.214
1568.0	18.252
1569.0	18.230
1570.0	18.280
1571.0	18.236
1572.0	18.232
1573.0	18.267
1574.0	18.335
1575.0	18.373
1576.0	18.349
1577.0	18.294
1578.0	18.272
1579.0	18.297
1580.0	18.370
1581.0	18.398
1582.0	18.401
1583.0	18.409
1584.0	18.406
1585.0	18.436
1586.0	18.394
1587.0	18.412
1588.0	18.363
1589.0	18.421
1590.0	18.386
1591.0	18.438
1592.0	18.442
1593.0	18.473
1594.0	18.467
1595.0	18.444
1596.0	18.491
1597.0	18.521
1598.0	18.564
1599.0	18.566
1600.0	18.591
