[SUMMARY]
Software Information
Software Name:	UVProbe
Version:	2.43
Mode:	Normal Mode

Data Information
Data is:	Original
Analyst:	
Date/Time:	16/02/2023 14:31:23
Comments:	

Instrument Information
Instrument Name:	SolidSpec3700
Instrument Type:	SolidSpec-3700 Series
Model (S/N):	SolidSpec3700 ( A11085100264CZ )

[METHOD]
[Measurement Properties]
Wavelength Range (nm.):	300,00 to 1400,00
Scan Speed:	Medium
Sampling Interval:	1,0
Auto Sampling Interval:	Disabled
Scan Mode:	Single

[Sample Preparation Properties]
Weight:	
Volume:	
Dilution:	
Path Length:	
Additional Information:	

[Instrument Properties]
Instrument Type:	SolidSpec-3700 Series
Measuring Mode:	Transmittance
Slit Width:	5,0 nm
Time Constant:	1,0 sec.
Source Lamp:	Auto
Light Source Change Wavelength:	285,00 nm
Detector Unit:	Integral Sphere
Detector Change Wavelength:	900,00 nm  1650,00 nm
Grating Change Wavelength:	800,00 nm
S/R Exchange:	Normal
Detector Lock:	Auto
Slit Program:	Fixed
Beam Mode:	Double
Stair Correction:	Disable

[Attachment Properties]
Attachment:	X-Y Stage
Sequence File:	Positions.xys

[Operation]
Threshold:	0,0010000
Points:	4
InterPolate:	Disabled
Average:	Disabled

[DATA]
Wavelength	Data
300.0	73.966
301.0	74.226
302.0	74.416
303.0	74.618
304.0	74.754
305.0	74.979
306.0	75.232
307.0	75.429
308.0	75.633
309.0	75.655
310.0	75.742
311.0	75.886
312.0	75.919
313.0	75.906
314.0	75.898
315.0	75.882
316.0	75.870
317.0	75.662
318.0	75.604
319.0	75.534
320.0	75.394
321.0	75.304
322.0	75.030
323.0	75.096
324.0	74.824
325.0	74.619
326.0	74.428
327.0	74.347
328.0	74.244
329.0	73.868
330.0	73.639
331.0	73.454
332.0	73.311
333.0	73.102
334.0	73.030
335.0	72.872
336.0	72.793
337.0	72.660
338.0	72.613
339.0	72.527
340.0	72.397
341.0	72.205
342.0	72.089
343.0	72.001
344.0	71.799
345.0	71.727
346.0	71.574
347.0	71.693
348.0	71.506
349.0	71.456
350.0	71.539
351.0	71.730
352.0	71.891
353.0	71.951
354.0	72.033
355.0	72.236
356.0	72.424
357.0	72.613
358.0	72.809
359.0	72.949
360.0	73.250
361.0	73.444
362.0	73.680
363.0	73.843
364.0	74.020
365.0	74.201
366.0	74.352
367.0	74.530
368.0	74.735
369.0	74.940
370.0	75.085
371.0	75.255
372.0	75.366
373.0	75.605
374.0	75.670
375.0	75.689
376.0	75.703
377.0	75.781
378.0	75.856
379.0	75.843
380.0	75.880
381.0	75.866
382.0	75.819
383.0	75.694
384.0	75.649
385.0	75.546
386.0	75.466
387.0	75.417
388.0	75.305
389.0	75.227
390.0	75.025
391.0	74.881
392.0	74.681
393.0	74.557
394.0	74.393
395.0	74.192
396.0	73.910
397.0	73.697
398.0	73.451
399.0	73.221
400.0	72.923
401.0	72.665
402.0	72.354
403.0	72.053
404.0	71.675
405.0	71.341
406.0	70.961
407.0	70.585
408.0	70.212
409.0	69.863
410.0	69.494
411.0	69.119
412.0	68.708
413.0	68.326
414.0	67.925
415.0	67.520
416.0	67.151
417.0	66.762
418.0	66.389
419.0	65.933
420.0	65.517
421.0	65.078
422.0	64.687
423.0	64.312
424.0	63.955
425.0	63.566
426.0	63.131
427.0	62.752
428.0	62.388
429.0	62.063
430.0	61.679
431.0	61.269
432.0	60.879
433.0	60.509
434.0	60.214
435.0	59.839
436.0	59.521
437.0	59.237
438.0	58.988
439.0	58.763
440.0	58.517
441.0	58.234
442.0	57.961
443.0	57.677
444.0	57.472
445.0	57.262
446.0	57.130
447.0	56.996
448.0	56.843
449.0	56.666
450.0	56.483
451.0	56.313
452.0	56.179
453.0	56.089
454.0	55.998
455.0	55.924
456.0	55.821
457.0	55.729
458.0	55.627
459.0	55.556
460.0	55.531
461.0	55.504
462.0	55.506
463.0	55.467
464.0	55.446
465.0	55.436
466.0	55.465
467.0	55.488
468.0	55.528
469.0	55.568
470.0	55.628
471.0	55.650
472.0	55.727
473.0	55.773
474.0	55.836
475.0	55.871
476.0	55.946
477.0	56.052
478.0	56.171
479.0	56.276
480.0	56.363
481.0	56.438
482.0	56.583
483.0	56.752
484.0	56.887
485.0	56.972
486.0	57.068
487.0	57.187
488.0	57.328
489.0	57.468
490.0	57.630
491.0	57.790
492.0	57.936
493.0	58.121
494.0	58.290
495.0	58.455
496.0	58.567
497.0	58.718
498.0	58.905
499.0	59.111
500.0	59.302
501.0	59.516
502.0	59.752
503.0	60.012
504.0	60.198
505.0	60.398
506.0	60.612
507.0	60.840
508.0	61.056
509.0	61.284
510.0	61.548
511.0	61.830
512.0	62.081
513.0	62.325
514.0	62.550
515.0	62.790
516.0	63.018
517.0	63.264
518.0	63.515
519.0	63.766
520.0	64.076
521.0	64.367
522.0	64.647
523.0	64.883
524.0	65.127
525.0	65.412
526.0	65.712
527.0	66.031
528.0	66.329
529.0	66.578
530.0	66.844
531.0	67.130
532.0	67.421
533.0	67.704
534.0	67.958
535.0	68.247
536.0	68.489
537.0	68.790
538.0	69.022
539.0	69.271
540.0	69.458
541.0	69.735
542.0	69.972
543.0	70.242
544.0	70.440
545.0	70.644
546.0	70.846
547.0	71.059
548.0	71.312
549.0	71.499
550.0	71.664
551.0	71.837
552.0	72.030
553.0	72.216
554.0	72.379
555.0	72.545
556.0	72.725
557.0	72.858
558.0	73.010
559.0	73.151
560.0	73.322
561.0	73.431
562.0	73.532
563.0	73.603
564.0	73.736
565.0	73.797
566.0	73.947
567.0	73.990
568.0	74.144
569.0	74.183
570.0	74.306
571.0	74.348
572.0	74.403
573.0	74.439
574.0	74.539
575.0	74.594
576.0	74.684
577.0	74.688
578.0	74.719
579.0	74.722
580.0	74.758
581.0	74.794
582.0	74.843
583.0	74.861
584.0	74.919
585.0	74.926
586.0	74.932
587.0	74.931
588.0	74.960
589.0	74.988
590.0	74.984
591.0	74.974
592.0	74.986
593.0	74.991
594.0	74.986
595.0	74.992
596.0	74.955
597.0	74.923
598.0	74.871
599.0	74.890
600.0	74.907
601.0	74.940
602.0	74.929
603.0	74.905
604.0	74.848
605.0	74.828
606.0	74.772
607.0	74.766
608.0	74.686
609.0	74.675
610.0	74.633
611.0	74.631
612.0	74.588
613.0	74.523
614.0	74.506
615.0	74.467
616.0	74.435
617.0	74.343
618.0	74.313
619.0	74.300
620.0	74.313
621.0	74.282
622.0	74.218
623.0	74.117
624.0	74.003
625.0	73.927
626.0	73.903
627.0	73.932
628.0	73.931
629.0	73.917
630.0	73.818
631.0	73.739
632.0	73.600
633.0	73.598
634.0	73.586
635.0	73.561
636.0	73.479
637.0	73.408
638.0	73.352
639.0	73.302
640.0	73.245
641.0	73.214
642.0	73.156
643.0	73.055
644.0	72.952
645.0	72.861
646.0	72.826
647.0	72.822
648.0	72.790
649.0	72.736
650.0	72.638
651.0	72.544
652.0	72.433
653.0	72.402
654.0	72.336
655.0	72.309
656.0	72.233
657.0	72.145
658.0	72.071
659.0	71.991
660.0	71.942
661.0	71.883
662.0	71.827
663.0	71.793
664.0	71.762
665.0	71.674
666.0	71.625
667.0	71.544
668.0	71.526
669.0	71.421
670.0	71.314
671.0	71.221
672.0	71.186
673.0	71.114
674.0	71.093
675.0	70.969
676.0	70.918
677.0	70.748
678.0	70.699
679.0	70.631
680.0	70.598
681.0	70.511
682.0	70.442
683.0	70.409
684.0	70.285
685.0	70.212
686.0	70.136
687.0	70.179
688.0	70.076
689.0	69.959
690.0	69.845
691.0	69.844
692.0	69.851
693.0	69.758
694.0	69.626
695.0	69.467
696.0	69.409
697.0	69.326
698.0	69.260
699.0	69.178
700.0	69.136
701.0	69.102
702.0	69.051
703.0	68.927
704.0	68.835
705.0	68.772
706.0	68.798
707.0	68.773
708.0	68.660
709.0	68.543
710.0	68.354
711.0	68.328
712.0	68.222
713.0	68.242
714.0	68.129
715.0	68.131
716.0	68.048
717.0	67.990
718.0	67.826
719.0	67.667
720.0	67.633
721.0	67.654
722.0	67.617
723.0	67.542
724.0	67.372
725.0	67.352
726.0	67.238
727.0	67.171
728.0	67.076
729.0	67.034
730.0	66.932
731.0	66.746
732.0	66.652
733.0	66.632
734.0	66.671
735.0	66.607
736.0	66.538
737.0	66.481
738.0	66.414
739.0	66.372
740.0	66.296
741.0	66.148
742.0	65.995
743.0	65.805
744.0	65.841
745.0	65.776
746.0	65.731
747.0	65.602
748.0	65.602
749.0	65.611
750.0	65.591
751.0	65.452
752.0	65.336
753.0	65.291
754.0	65.320
755.0	65.269
756.0	65.067
757.0	64.977
758.0	64.929
759.0	64.930
760.0	64.867
761.0	64.816
762.0	64.707
763.0	64.555
764.0	64.439
765.0	64.349
766.0	64.352
767.0	64.243
768.0	64.204
769.0	64.091
770.0	64.102
771.0	64.089
772.0	64.050
773.0	63.928
774.0	63.787
775.0	63.722
776.0	63.817
777.0	63.772
778.0	63.628
779.0	63.506
780.0	63.471
781.0	63.546
782.0	63.354
783.0	63.307
784.0	63.210
785.0	63.171
786.0	63.107
787.0	63.006
788.0	63.038
789.0	63.007
790.0	62.908
791.0	62.792
792.0	62.702
793.0	62.712
794.0	62.665
795.0	62.650
796.0	62.611
797.0	62.570
798.0	62.430
799.0	62.327
800.0	62.370
801.0	62.425
802.0	62.453
803.0	62.342
804.0	62.234
805.0	62.152
806.0	62.133
807.0	62.133
808.0	62.127
809.0	62.067
810.0	61.949
811.0	61.913
812.0	61.815
813.0	61.863
814.0	61.775
815.0	61.774
816.0	61.674
817.0	61.626
818.0	61.615
819.0	61.573
820.0	61.561
821.0	61.525
822.0	61.479
823.0	61.403
824.0	61.311
825.0	61.268
826.0	61.238
827.0	61.186
828.0	61.109
829.0	61.071
830.0	60.991
831.0	60.981
832.0	60.988
833.0	60.985
834.0	60.988
835.0	60.912
836.0	60.960
837.0	60.883
838.0	60.798
839.0	60.602
840.0	60.587
841.0	60.593
842.0	60.641
843.0	60.544
844.0	60.473
845.0	60.371
846.0	60.214
847.0	60.173
848.0	60.113
849.0	60.262
850.0	60.239
851.0	60.214
852.0	59.968
853.0	59.921
854.0	59.970
855.0	60.033
856.0	59.814
857.0	59.753
858.0	59.782
859.0	59.915
860.0	59.947
861.0	59.955
862.0	59.900
863.0	59.798
864.0	59.684
865.0	59.853
866.0	59.844
867.0	59.819
868.0	59.851
869.0	59.672
870.0	59.810
871.0	59.535
872.0	59.857
873.0	59.818
874.0	59.933
875.0	59.877
876.0	59.839
877.0	59.589
878.0	59.292
879.0	59.220
880.0	59.233
881.0	59.721
882.0	59.823
883.0	59.812
884.0	59.819
885.0	59.564
886.0	59.815
887.0	59.107
888.0	58.844
889.0	58.841
890.0	58.837
891.0	59.535
892.0	59.639
893.0	59.812
894.0	59.165
895.0	58.787
896.0	58.742
897.0	58.961
898.0	58.850
899.0	59.739
900.0	59.855
901.0	60.151
902.0	59.468
903.0	59.453
904.0	59.354
905.0	59.224
906.0	59.184
907.0	59.098
908.0	59.142
909.0	59.091
910.0	59.165
911.0	59.157
912.0	59.121
913.0	59.050
914.0	59.033
915.0	59.115
916.0	59.194
917.0	59.210
918.0	59.175
919.0	59.163
920.0	59.135
921.0	59.121
922.0	59.115
923.0	59.142
924.0	59.084
925.0	59.079
926.0	59.092
927.0	59.158
928.0	59.139
929.0	59.092
930.0	59.116
931.0	59.158
932.0	59.152
933.0	59.144
934.0	59.127
935.0	59.142
936.0	59.136
937.0	59.101
938.0	59.029
939.0	59.072
940.0	59.146
941.0	59.240
942.0	59.145
943.0	59.105
944.0	59.052
945.0	59.160
946.0	59.142
947.0	59.195
948.0	59.142
949.0	59.186
950.0	59.181
951.0	59.188
952.0	59.177
953.0	59.147
954.0	59.159
955.0	59.179
956.0	59.194
957.0	59.252
958.0	59.230
959.0	59.263
960.0	59.253
961.0	59.288
962.0	59.286
963.0	59.301
964.0	59.299
965.0	59.323
966.0	59.281
967.0	59.293
968.0	59.277
969.0	59.335
970.0	59.316
971.0	59.346
972.0	59.355
973.0	59.360
974.0	59.394
975.0	59.366
976.0	59.424
977.0	59.406
978.0	59.427
979.0	59.396
980.0	59.417
981.0	59.467
982.0	59.534
983.0	59.566
984.0	59.576
985.0	59.545
986.0	59.523
987.0	59.481
988.0	59.490
989.0	59.510
990.0	59.562
991.0	59.592
992.0	59.605
993.0	59.616
994.0	59.660
995.0	59.694
996.0	59.687
997.0	59.678
998.0	59.650
999.0	59.659
1000.0	59.645
1001.0	59.647
1002.0	59.651
1003.0	59.678
1004.0	59.714
1005.0	59.731
1006.0	59.757
1007.0	59.765
1008.0	59.766
1009.0	59.768
1010.0	59.802
1011.0	59.853
1012.0	59.876
1013.0	59.876
1014.0	59.851
1015.0	59.862
1016.0	59.896
1017.0	59.940
1018.0	59.968
1019.0	59.953
1020.0	59.958
1021.0	59.950
1022.0	59.977
1023.0	59.983
1024.0	59.978
1025.0	59.956
1026.0	59.975
1027.0	59.978
1028.0	60.024
1029.0	60.021
1030.0	60.045
1031.0	60.053
1032.0	60.077
1033.0	60.096
1034.0	60.119
1035.0	60.139
1036.0	60.135
1037.0	60.164
1038.0	60.201
1039.0	60.227
1040.0	60.206
1041.0	60.179
1042.0	60.187
1043.0	60.233
1044.0	60.262
1045.0	60.252
1046.0	60.228
1047.0	60.258
1048.0	60.305
1049.0	60.326
1050.0	60.303
1051.0	60.315
1052.0	60.331
1053.0	60.355
1054.0	60.358
1055.0	60.346
1056.0	60.362
1057.0	60.369
1058.0	60.402
1059.0	60.402
1060.0	60.407
1061.0	60.411
1062.0	60.435
1063.0	60.471
1064.0	60.489
1065.0	60.498
1066.0	60.491
1067.0	60.529
1068.0	60.561
1069.0	60.585
1070.0	60.575
1071.0	60.597
1072.0	60.600
1073.0	60.620
1074.0	60.597
1075.0	60.623
1076.0	60.631
1077.0	60.673
1078.0	60.679
1079.0	60.685
1080.0	60.677
1081.0	60.704
1082.0	60.742
1083.0	60.770
1084.0	60.780
1085.0	60.776
1086.0	60.782
1087.0	60.817
1088.0	60.849
1089.0	60.882
1090.0	60.882
1091.0	60.899
1092.0	60.881
1093.0	60.875
1094.0	60.883
1095.0	60.901
1096.0	60.914
1097.0	60.936
1098.0	60.958
1099.0	60.964
1100.0	60.964
1101.0	60.958
1102.0	61.001
1103.0	61.009
1104.0	61.020
1105.0	61.007
1106.0	61.012
1107.0	61.029
1108.0	61.056
1109.0	61.064
1110.0	61.088
1111.0	61.103
1112.0	61.124
1113.0	61.117
1114.0	61.120
1115.0	61.149
1116.0	61.167
1117.0	61.173
1118.0	61.165
1119.0	61.186
1120.0	61.204
1121.0	61.188
1122.0	61.193
1123.0	61.198
1124.0	61.242
1125.0	61.249
1126.0	61.244
1127.0	61.243
1128.0	61.237
1129.0	61.248
1130.0	61.234
1131.0	61.224
1132.0	61.226
1133.0	61.247
1134.0	61.258
1135.0	61.296
1136.0	61.305
1137.0	61.333
1138.0	61.317
1139.0	61.314
1140.0	61.319
1141.0	61.298
1142.0	61.327
1143.0	61.309
1144.0	61.343
1145.0	61.316
1146.0	61.327
1147.0	61.334
1148.0	61.331
1149.0	61.321
1150.0	61.320
1151.0	61.318
1152.0	61.347
1153.0	61.326
1154.0	61.339
1155.0	61.328
1156.0	61.343
1157.0	61.345
1158.0	61.336
1159.0	61.317
1160.0	61.326
1161.0	61.348
1162.0	61.370
1163.0	61.375
1164.0	61.356
1165.0	61.344
1166.0	61.346
1167.0	61.349
1168.0	61.335
1169.0	61.314
1170.0	61.305
1171.0	61.295
1172.0	61.288
1173.0	61.288
1174.0	61.295
1175.0	61.296
1176.0	61.268
1177.0	61.266
1178.0	61.241
1179.0	61.227
1180.0	61.215
1181.0	61.211
1182.0	61.215
1183.0	61.200
1184.0	61.190
1185.0	61.183
1186.0	61.182
1187.0	61.172
1188.0	61.164
1189.0	61.164
1190.0	61.147
1191.0	61.137
1192.0	61.087
1193.0	61.071
1194.0	61.046
1195.0	61.048
1196.0	61.050
1197.0	61.052
1198.0	61.061
1199.0	61.035
1200.0	61.014
1201.0	60.977
1202.0	60.949
1203.0	60.931
1204.0	60.886
1205.0	60.889
1206.0	60.858
1207.0	60.874
1208.0	60.836
1209.0	60.818
1210.0	60.782
1211.0	60.787
1212.0	60.770
1213.0	60.734
1214.0	60.696
1215.0	60.690
1216.0	60.702
1217.0	60.669
1218.0	60.623
1219.0	60.580
1220.0	60.576
1221.0	60.550
1222.0	60.519
1223.0	60.483
1224.0	60.478
1225.0	60.459
1226.0	60.424
1227.0	60.391
1228.0	60.390
1229.0	60.373
1230.0	60.349
1231.0	60.320
1232.0	60.309
1233.0	60.296
1234.0	60.251
1235.0	60.222
1236.0	60.181
1237.0	60.165
1238.0	60.131
1239.0	60.107
1240.0	60.087
1241.0	60.048
1242.0	60.026
1243.0	59.968
1244.0	59.941
1245.0	59.890
1246.0	59.885
1247.0	59.864
1248.0	59.864
1249.0	59.803
1250.0	59.772
1251.0	59.710
1252.0	59.690
1253.0	59.635
1254.0	59.606
1255.0	59.570
1256.0	59.548
1257.0	59.523
1258.0	59.527
1259.0	59.514
1260.0	59.480
1261.0	59.438
1262.0	59.392
1263.0	59.360
1264.0	59.317
1265.0	59.308
1266.0	59.296
1267.0	59.262
1268.0	59.208
1269.0	59.157
1270.0	59.111
1271.0	59.103
1272.0	59.096
1273.0	59.105
1274.0	59.066
1275.0	59.040
1276.0	58.988
1277.0	58.968
1278.0	58.944
1279.0	58.930
1280.0	58.885
1281.0	58.844
1282.0	58.811
1283.0	58.791
1284.0	58.737
1285.0	58.694
1286.0	58.645
1287.0	58.626
1288.0	58.587
1289.0	58.592
1290.0	58.546
1291.0	58.511
1292.0	58.430
1293.0	58.385
1294.0	58.359
1295.0	58.354
1296.0	58.358
1297.0	58.339
1298.0	58.303
1299.0	58.270
1300.0	58.219
1301.0	58.195
1302.0	58.155
1303.0	58.112
1304.0	58.042
1305.0	57.989
1306.0	57.961
1307.0	57.926
1308.0	57.895
1309.0	57.870
1310.0	57.865
1311.0	57.833
1312.0	57.782
1313.0	57.711
1314.0	57.663
1315.0	57.628
1316.0	57.610
1317.0	57.585
1318.0	57.520
1319.0	57.483
1320.0	57.465
1321.0	57.477
1322.0	57.457
1323.0	57.417
1324.0	57.376
1325.0	57.339
1326.0	57.283
1327.0	57.256
1328.0	57.198
1329.0	57.178
1330.0	57.131
1331.0	57.103
1332.0	57.065
1333.0	57.016
1334.0	56.997
1335.0	56.959
1336.0	56.927
1337.0	56.881
1338.0	56.830
1339.0	56.781
1340.0	56.757
1341.0	56.731
1342.0	56.697
1343.0	56.642
1344.0	56.608
1345.0	56.602
1346.0	56.554
1347.0	56.510
1348.0	56.460
1349.0	56.427
1350.0	56.396
1351.0	56.350
1352.0	56.310
1353.0	56.275
1354.0	56.214
1355.0	56.141
1356.0	56.089
1357.0	56.057
1358.0	56.013
1359.0	55.964
1360.0	55.964
1361.0	55.959
1362.0	55.948
1363.0	55.931
1364.0	55.921
1365.0	55.882
1366.0	55.846
1367.0	55.806
1368.0	55.769
1369.0	55.741
1370.0	55.699
1371.0	55.675
1372.0	55.609
1373.0	55.567
1374.0	55.523
1375.0	55.458
1376.0	55.423
1377.0	55.357
1378.0	55.288
1379.0	55.201
1380.0	55.145
1381.0	55.106
1382.0	55.100
1383.0	55.067
1384.0	55.052
1385.0	55.020
1386.0	55.004
1387.0	55.006
1388.0	55.002
1389.0	54.977
1390.0	54.949
1391.0	54.904
1392.0	54.873
1393.0	54.815
1394.0	54.772
1395.0	54.732
1396.0	54.689
1397.0	54.668
1398.0	54.672
1399.0	54.657
1400.0	54.633
