[SUMMARY]
Software Information
Software Name:	UVProbe
Version:	2.43
Mode:	Normal Mode

Data Information
Data is:	Original
Analyst:	
Date/Time:	05/04/2023 12:07:19
Comments:	

Instrument Information
Instrument Name:	SolidSpec3700
Instrument Type:	SolidSpec-3700 Series
Model (S/N):	SolidSpec3700 ( A11085100264CZ )

[METHOD]
[Measurement Properties]
Wavelength Range (nm.):	285,00 to 1600,00
Scan Speed:	Medium
Sampling Interval:	1,0
Auto Sampling Interval:	Disabled
Scan Mode:	Single

[Sample Preparation Properties]
Weight:	
Volume:	
Dilution:	
Path Length:	
Additional Information:	

[Instrument Properties]
Instrument Type:	SolidSpec-3700 Series
Measuring Mode:	Reflectance
Slit Width:	5,0 nm
Time Constant:	1,0 sec.
Source Lamp:	Auto
Light Source Change Wavelength:	282,00 nm
Detector Unit:	Integral Sphere
Detector Change Wavelength:	900,00 nm  1650,00 nm
Grating Change Wavelength:	1000,00 nm
S/R Exchange:	Inverse
Detector Lock:	Auto
Slit Program:	Fixed
Beam Mode:	Double
Stair Correction:	Disable

[Attachment Properties]
Attachment:	X-Y Stage
Sequence File:	R_robot_16-100-P1_optical_pads.xys

[Operation]
Threshold:	0,0010000
Points:	4
InterPolate:	Disabled
Average:	Disabled

[DATA]
Wavelength	Data
285.0	5.525
286.0	5.457
287.0	5.409
288.0	5.465
289.0	5.461
290.0	5.455
291.0	5.430
292.0	5.459
293.0	5.491
294.0	5.506
295.0	5.501
296.0	5.489
297.0	5.494
298.0	5.516
299.0	5.545
300.0	5.583
301.0	5.590
302.0	5.603
303.0	5.540
304.0	5.506
305.0	5.461
306.0	5.492
307.0	5.483
308.0	5.465
309.0	5.428
310.0	5.430
311.0	5.403
312.0	5.366
313.0	5.332
314.0	5.293
315.0	5.251
316.0	5.172
317.0	5.146
318.0	5.123
319.0	5.093
320.0	5.039
321.0	4.984
322.0	4.937
323.0	4.879
324.0	4.821
325.0	4.810
326.0	4.770
327.0	4.753
328.0	4.682
329.0	4.638
330.0	4.573
331.0	4.526
332.0	4.489
333.0	4.463
334.0	4.439
335.0	4.406
336.0	4.360
337.0	4.319
338.0	4.277
339.0	4.262
340.0	4.244
341.0	4.236
342.0	4.205
343.0	4.196
344.0	4.185
345.0	4.187
346.0	4.179
347.0	4.173
348.0	4.193
349.0	4.196
350.0	4.204
351.0	4.208
352.0	4.219
353.0	4.249
354.0	4.275
355.0	4.311
356.0	4.343
357.0	4.373
358.0	4.399
359.0	4.419
360.0	4.433
361.0	4.468
362.0	4.487
363.0	4.513
364.0	4.526
365.0	4.549
366.0	4.557
367.0	4.564
368.0	4.557
369.0	4.556
370.0	4.558
371.0	4.581
372.0	4.582
373.0	4.574
374.0	4.544
375.0	4.531
376.0	4.521
377.0	4.514
378.0	4.512
379.0	4.502
380.0	4.498
381.0	4.476
382.0	4.453
383.0	4.435
384.0	4.418
385.0	4.413
386.0	4.388
387.0	4.377
388.0	4.343
389.0	4.333
390.0	4.302
391.0	4.294
392.0	4.264
393.0	4.249
394.0	4.233
395.0	4.219
396.0	4.203
397.0	4.193
398.0	4.181
399.0	4.165
400.0	4.144
401.0	4.131
402.0	4.119
403.0	4.104
404.0	4.092
405.0	4.078
406.0	4.060
407.0	4.053
408.0	4.051
409.0	4.059
410.0	4.059
411.0	4.055
412.0	4.054
413.0	4.049
414.0	4.062
415.0	4.075
416.0	4.087
417.0	4.093
418.0	4.098
419.0	4.110
420.0	4.121
421.0	4.131
422.0	4.146
423.0	4.168
424.0	4.196
425.0	4.224
426.0	4.244
427.0	4.258
428.0	4.275
429.0	4.287
430.0	4.309
431.0	4.335
432.0	4.377
433.0	4.415
434.0	4.447
435.0	4.477
436.0	4.508
437.0	4.551
438.0	4.586
439.0	4.626
440.0	4.660
441.0	4.709
442.0	4.755
443.0	4.801
444.0	4.836
445.0	4.879
446.0	4.926
447.0	4.979
448.0	5.021
449.0	5.057
450.0	5.100
451.0	5.149
452.0	5.210
453.0	5.262
454.0	5.311
455.0	5.357
456.0	5.397
457.0	5.444
458.0	5.489
459.0	5.540
460.0	5.582
461.0	5.615
462.0	5.657
463.0	5.700
464.0	5.747
465.0	5.778
466.0	5.819
467.0	5.856
468.0	5.900
469.0	5.940
470.0	5.981
471.0	6.022
472.0	6.058
473.0	6.094
474.0	6.131
475.0	6.165
476.0	6.211
477.0	6.256
478.0	6.294
479.0	6.326
480.0	6.348
481.0	6.391
482.0	6.422
483.0	6.467
484.0	6.496
485.0	6.528
486.0	6.552
487.0	6.579
488.0	6.608
489.0	6.629
490.0	6.657
491.0	6.681
492.0	6.708
493.0	6.725
494.0	6.746
495.0	6.776
496.0	6.804
497.0	6.834
498.0	6.854
499.0	6.878
500.0	6.900
501.0	6.925
502.0	6.940
503.0	6.953
504.0	6.967
505.0	6.986
506.0	7.002
507.0	7.018
508.0	7.028
509.0	7.029
510.0	7.043
511.0	7.050
512.0	7.063
513.0	7.056
514.0	7.062
515.0	7.067
516.0	7.076
517.0	7.071
518.0	7.064
519.0	7.062
520.0	7.065
521.0	7.078
522.0	7.075
523.0	7.071
524.0	7.055
525.0	7.047
526.0	7.044
527.0	7.042
528.0	7.026
529.0	7.005
530.0	6.985
531.0	6.977
532.0	6.963
533.0	6.950
534.0	6.922
535.0	6.905
536.0	6.883
537.0	6.870
538.0	6.843
539.0	6.832
540.0	6.814
541.0	6.785
542.0	6.751
543.0	6.715
544.0	6.706
545.0	6.691
546.0	6.684
547.0	6.650
548.0	6.622
549.0	6.591
550.0	6.575
551.0	6.552
552.0	6.530
553.0	6.506
554.0	6.481
555.0	6.467
556.0	6.452
557.0	6.439
558.0	6.403
559.0	6.376
560.0	6.349
561.0	6.333
562.0	6.311
563.0	6.289
564.0	6.277
565.0	6.259
566.0	6.239
567.0	6.209
568.0	6.180
569.0	6.164
570.0	6.142
571.0	6.127
572.0	6.098
573.0	6.079
574.0	6.054
575.0	6.037
576.0	6.024
577.0	6.009
578.0	5.993
579.0	5.963
580.0	5.951
581.0	5.939
582.0	5.931
583.0	5.917
584.0	5.903
585.0	5.891
586.0	5.878
587.0	5.860
588.0	5.847
589.0	5.833
590.0	5.823
591.0	5.824
592.0	5.820
593.0	5.818
594.0	5.814
595.0	5.809
596.0	5.805
597.0	5.801
598.0	5.801
599.0	5.801
600.0	5.799
601.0	5.797
602.0	5.797
603.0	5.788
604.0	5.784
605.0	5.767
606.0	5.763
607.0	5.762
608.0	5.780
609.0	5.781
610.0	5.789
611.0	5.790
612.0	5.794
613.0	5.789
614.0	5.789
615.0	5.796
616.0	5.794
617.0	5.802
618.0	5.808
619.0	5.817
620.0	5.829
621.0	5.828
622.0	5.834
623.0	5.825
624.0	5.833
625.0	5.851
626.0	5.862
627.0	5.865
628.0	5.876
629.0	5.880
630.0	5.896
631.0	5.899
632.0	5.915
633.0	5.919
634.0	5.934
635.0	5.938
636.0	5.956
637.0	5.970
638.0	5.994
639.0	6.003
640.0	6.010
641.0	6.016
642.0	6.032
643.0	6.038
644.0	6.044
645.0	6.062
646.0	6.085
647.0	6.107
648.0	6.112
649.0	6.133
650.0	6.144
651.0	6.164
652.0	6.175
653.0	6.197
654.0	6.212
655.0	6.216
656.0	6.226
657.0	6.238
658.0	6.255
659.0	6.261
660.0	6.278
661.0	6.296
662.0	6.318
663.0	6.335
664.0	6.350
665.0	6.365
666.0	6.382
667.0	6.408
668.0	6.437
669.0	6.468
670.0	6.502
671.0	6.534
672.0	6.567
673.0	6.580
674.0	6.604
675.0	6.620
676.0	6.648
677.0	6.670
678.0	6.692
679.0	6.724
680.0	6.751
681.0	6.774
682.0	6.785
683.0	6.797
684.0	6.817
685.0	6.836
686.0	6.861
687.0	6.882
688.0	6.892
689.0	6.918
690.0	6.951
691.0	6.988
692.0	7.002
693.0	7.021
694.0	7.059
695.0	7.087
696.0	7.116
697.0	7.129
698.0	7.154
699.0	7.175
700.0	7.199
701.0	7.218
702.0	7.241
703.0	7.268
704.0	7.290
705.0	7.305
706.0	7.332
707.0	7.370
708.0	7.402
709.0	7.418
710.0	7.425
711.0	7.441
712.0	7.468
713.0	7.493
714.0	7.518
715.0	7.537
716.0	7.572
717.0	7.594
718.0	7.626
719.0	7.668
720.0	7.711
721.0	7.728
722.0	7.734
723.0	7.750
724.0	7.773
725.0	7.790
726.0	7.830
727.0	7.860
728.0	7.897
729.0	7.910
730.0	7.949
731.0	7.974
732.0	8.006
733.0	8.008
734.0	8.043
735.0	8.081
736.0	8.117
737.0	8.134
738.0	8.149
739.0	8.192
740.0	8.230
741.0	8.242
742.0	8.269
743.0	8.272
744.0	8.305
745.0	8.333
746.0	8.386
747.0	8.419
748.0	8.420
749.0	8.444
750.0	8.477
751.0	8.539
752.0	8.543
753.0	8.583
754.0	8.564
755.0	8.620
756.0	8.616
757.0	8.675
758.0	8.695
759.0	8.739
760.0	8.757
761.0	8.795
762.0	8.834
763.0	8.875
764.0	8.877
765.0	8.924
766.0	8.940
767.0	8.983
768.0	8.971
769.0	9.013
770.0	9.069
771.0	9.116
772.0	9.128
773.0	9.120
774.0	9.134
775.0	9.132
776.0	9.166
777.0	9.202
778.0	9.240
779.0	9.265
780.0	9.282
781.0	9.338
782.0	9.327
783.0	9.350
784.0	9.389
785.0	9.447
786.0	9.479
787.0	9.480
788.0	9.467
789.0	9.468
790.0	9.483
791.0	9.533
792.0	9.572
793.0	9.601
794.0	9.639
795.0	9.663
796.0	9.701
797.0	9.685
798.0	9.723
799.0	9.758
800.0	9.826
801.0	9.824
802.0	9.825
803.0	9.841
804.0	9.931
805.0	9.947
806.0	9.966
807.0	9.951
808.0	9.978
809.0	9.971
810.0	10.006
811.0	10.028
812.0	10.112
813.0	10.056
814.0	10.123
815.0	10.127
816.0	10.206
817.0	10.196
818.0	10.203
819.0	10.256
820.0	10.303
821.0	10.331
822.0	10.304
823.0	10.250
824.0	10.267
825.0	10.278
826.0	10.367
827.0	10.367
828.0	10.433
829.0	10.392
830.0	10.487
831.0	10.448
832.0	10.490
833.0	10.481
834.0	10.494
835.0	10.551
836.0	10.628
837.0	10.662
838.0	10.691
839.0	10.659
840.0	10.676
841.0	10.675
842.0	10.674
843.0	10.726
844.0	10.805
845.0	10.890
846.0	10.993
847.0	10.901
848.0	10.934
849.0	10.838
850.0	10.873
851.0	10.768
852.0	10.699
853.0	10.806
854.0	10.776
855.0	10.855
856.0	10.884
857.0	11.060
858.0	10.925
859.0	10.875
860.0	10.828
861.0	10.848
862.0	10.936
863.0	10.878
864.0	11.051
865.0	10.739
866.0	10.650
867.0	10.677
868.0	10.823
869.0	10.896
870.0	10.850
871.0	10.910
872.0	11.188
873.0	11.195
874.0	11.169
875.0	10.999
876.0	11.439
877.0	12.084
878.0	11.849
879.0	11.357
880.0	10.478
881.0	10.697
882.0	10.905
883.0	10.954
884.0	11.070
885.0	10.632
886.0	10.914
887.0	11.155
888.0	11.662
889.0	11.759
890.0	11.950
891.0	11.878
892.0	11.518
893.0	10.529
894.0	11.345
895.0	11.801
896.0	12.708
897.0	12.591
898.0	12.374
899.0	10.765
900.0	10.664
901.0	10.297
902.0	11.695
903.0	11.304
904.0	11.673
905.0	12.208
906.0	11.456
907.0	12.737
908.0	12.664
909.0	13.718
910.0	11.000
911.0	9.524
912.0	8.871
913.0	10.665
914.0	10.379
915.0	10.631
916.0	11.176
917.0	12.568
918.0	12.447
919.0	12.838
920.0	12.573
921.0	13.116
922.0	12.701
923.0	13.146
924.0	11.863
925.0	10.254
926.0	10.454
927.0	12.259
928.0	13.774
929.0	13.518
930.0	12.245
931.0	12.416
932.0	12.797
933.0	14.896
934.0	14.752
935.0	14.131
936.0	12.344
937.0	12.478
938.0	13.333
939.0	14.639
940.0	13.786
941.0	12.198
942.0	10.941
943.0	10.645
944.0	10.954
945.0	10.447
946.0	11.172
947.0	10.915
948.0	11.988
949.0	11.601
950.0	12.231
951.0	11.513
952.0	12.622
953.0	12.394
954.0	12.548
955.0	12.225
956.0	12.156
957.0	12.104
958.0	12.132
959.0	11.624
960.0	10.721
961.0	10.269
962.0	11.625
963.0	12.278
964.0	12.191
965.0	12.216
966.0	12.398
967.0	12.726
968.0	12.281
969.0	11.908
970.0	11.646
971.0	10.836
972.0	11.644
973.0	11.979
974.0	12.666
975.0	12.941
976.0	11.771
977.0	12.264
978.0	12.319
979.0	13.639
980.0	12.736
981.0	12.259
982.0	12.112
983.0	12.501
984.0	12.477
985.0	11.695
986.0	12.198
987.0	11.824
988.0	12.184
989.0	12.104
990.0	11.986
991.0	11.321
992.0	10.990
993.0	11.238
994.0	11.878
995.0	11.978
996.0	12.064
997.0	11.694
998.0	11.331
999.0	11.618
1000.0	12.022
1001.0	12.410
1002.0	12.290
1003.0	12.280
1004.0	12.280
1005.0	12.291
1006.0	12.295
1007.0	12.283
1008.0	12.255
1009.0	12.253
1010.0	12.257
1011.0	12.275
1012.0	12.254
1013.0	12.272
1014.0	12.267
1015.0	12.255
1016.0	12.241
1017.0	12.227
1018.0	12.243
1019.0	12.219
1020.0	12.228
1021.0	12.207
1022.0	12.212
1023.0	12.210
1024.0	12.224
1025.0	12.211
1026.0	12.181
1027.0	12.168
1028.0	12.155
1029.0	12.155
1030.0	12.143
1031.0	12.138
1032.0	12.129
1033.0	12.113
1034.0	12.120
1035.0	12.125
1036.0	12.127
1037.0	12.096
1038.0	12.086
1039.0	12.090
1040.0	12.084
1041.0	12.086
1042.0	12.078
1043.0	12.075
1044.0	12.040
1045.0	12.035
1046.0	12.036
1047.0	12.047
1048.0	12.032
1049.0	12.033
1050.0	12.037
1051.0	12.041
1052.0	12.016
1053.0	12.001
1054.0	11.976
1055.0	11.998
1056.0	12.005
1057.0	12.000
1058.0	11.977
1059.0	11.943
1060.0	11.950
1061.0	11.936
1062.0	11.968
1063.0	11.958
1064.0	11.963
1065.0	11.933
1066.0	11.918
1067.0	11.926
1068.0	11.921
1069.0	11.921
1070.0	11.887
1071.0	11.876
1072.0	11.864
1073.0	11.869
1074.0	11.860
1075.0	11.876
1076.0	11.868
1077.0	11.873
1078.0	11.851
1079.0	11.822
1080.0	11.826
1081.0	11.810
1082.0	11.820
1083.0	11.770
1084.0	11.780
1085.0	11.762
1086.0	11.767
1087.0	11.742
1088.0	11.743
1089.0	11.749
1090.0	11.756
1091.0	11.756
1092.0	11.757
1093.0	11.755
1094.0	11.755
1095.0	11.737
1096.0	11.731
1097.0	11.694
1098.0	11.673
1099.0	11.645
1100.0	11.653
1101.0	11.659
1102.0	11.657
1103.0	11.647
1104.0	11.632
1105.0	11.630
1106.0	11.645
1107.0	11.644
1108.0	11.636
1109.0	11.611
1110.0	11.594
1111.0	11.575
1112.0	11.587
1113.0	11.607
1114.0	11.616
1115.0	11.574
1116.0	11.548
1117.0	11.546
1118.0	11.580
1119.0	11.592
1120.0	11.577
1121.0	11.567
1122.0	11.565
1123.0	11.560
1124.0	11.543
1125.0	11.525
1126.0	11.531
1127.0	11.526
1128.0	11.529
1129.0	11.539
1130.0	11.542
1131.0	11.528
1132.0	11.521
1133.0	11.526
1134.0	11.531
1135.0	11.528
1136.0	11.522
1137.0	11.513
1138.0	11.497
1139.0	11.493
1140.0	11.499
1141.0	11.518
1142.0	11.524
1143.0	11.510
1144.0	11.499
1145.0	11.493
1146.0	11.503
1147.0	11.505
1148.0	11.486
1149.0	11.491
1150.0	11.482
1151.0	11.508
1152.0	11.510
1153.0	11.523
1154.0	11.517
1155.0	11.497
1156.0	11.482
1157.0	11.475
1158.0	11.501
1159.0	11.499
1160.0	11.515
1161.0	11.519
1162.0	11.527
1163.0	11.520
1164.0	11.529
1165.0	11.515
1166.0	11.516
1167.0	11.512
1168.0	11.540
1169.0	11.551
1170.0	11.546
1171.0	11.540
1172.0	11.537
1173.0	11.538
1174.0	11.534
1175.0	11.521
1176.0	11.534
1177.0	11.550
1178.0	11.563
1179.0	11.566
1180.0	11.575
1181.0	11.595
1182.0	11.590
1183.0	11.599
1184.0	11.602
1185.0	11.627
1186.0	11.620
1187.0	11.622
1188.0	11.619
1189.0	11.620
1190.0	11.620
1191.0	11.622
1192.0	11.648
1193.0	11.676
1194.0	11.662
1195.0	11.655
1196.0	11.642
1197.0	11.673
1198.0	11.684
1199.0	11.700
1200.0	11.712
1201.0	11.701
1202.0	11.696
1203.0	11.687
1204.0	11.714
1205.0	11.742
1206.0	11.732
1207.0	11.738
1208.0	11.738
1209.0	11.766
1210.0	11.775
1211.0	11.781
1212.0	11.799
1213.0	11.808
1214.0	11.827
1215.0	11.853
1216.0	11.878
1217.0	11.877
1218.0	11.863
1219.0	11.873
1220.0	11.876
1221.0	11.892
1222.0	11.889
1223.0	11.909
1224.0	11.916
1225.0	11.917
1226.0	11.950
1227.0	11.951
1228.0	11.968
1229.0	11.957
1230.0	11.985
1231.0	12.003
1232.0	12.032
1233.0	12.038
1234.0	12.062
1235.0	12.075
1236.0	12.106
1237.0	12.114
1238.0	12.119
1239.0	12.111
1240.0	12.109
1241.0	12.123
1242.0	12.148
1243.0	12.169
1244.0	12.191
1245.0	12.215
1246.0	12.248
1247.0	12.259
1248.0	12.250
1249.0	12.252
1250.0	12.276
1251.0	12.319
1252.0	12.354
1253.0	12.369
1254.0	12.362
1255.0	12.380
1256.0	12.396
1257.0	12.420
1258.0	12.438
1259.0	12.439
1260.0	12.449
1261.0	12.427
1262.0	12.437
1263.0	12.455
1264.0	12.481
1265.0	12.509
1266.0	12.517
1267.0	12.549
1268.0	12.572
1269.0	12.580
1270.0	12.596
1271.0	12.598
1272.0	12.625
1273.0	12.641
1274.0	12.656
1275.0	12.683
1276.0	12.722
1277.0	12.750
1278.0	12.783
1279.0	12.777
1280.0	12.794
1281.0	12.790
1282.0	12.792
1283.0	12.793
1284.0	12.825
1285.0	12.832
1286.0	12.863
1287.0	12.859
1288.0	12.902
1289.0	12.899
1290.0	12.934
1291.0	12.956
1292.0	12.973
1293.0	12.977
1294.0	13.009
1295.0	13.052
1296.0	13.080
1297.0	13.070
1298.0	13.096
1299.0	13.120
1300.0	13.120
1301.0	13.112
1302.0	13.119
1303.0	13.172
1304.0	13.219
1305.0	13.256
1306.0	13.279
1307.0	13.305
1308.0	13.321
1309.0	13.336
1310.0	13.344
1311.0	13.369
1312.0	13.395
1313.0	13.408
1314.0	13.431
1315.0	13.449
1316.0	13.466
1317.0	13.485
1318.0	13.511
1319.0	13.577
1320.0	13.616
1321.0	13.620
1322.0	13.629
1323.0	13.636
1324.0	13.683
1325.0	13.686
1326.0	13.689
1327.0	13.705
1328.0	13.728
1329.0	13.766
1330.0	13.772
1331.0	13.812
1332.0	13.836
1333.0	13.850
1334.0	13.853
1335.0	13.884
1336.0	13.907
1337.0	13.899
1338.0	13.915
1339.0	13.948
1340.0	13.994
1341.0	14.016
1342.0	14.046
1343.0	14.062
1344.0	14.086
1345.0	14.088
1346.0	14.148
1347.0	14.160
1348.0	14.192
1349.0	14.182
1350.0	14.190
1351.0	14.212
1352.0	14.229
1353.0	14.253
1354.0	14.259
1355.0	14.280
1356.0	14.291
1357.0	14.326
1358.0	14.347
1359.0	14.376
1360.0	14.362
1361.0	14.360
1362.0	14.370
1363.0	14.389
1364.0	14.400
1365.0	14.427
1366.0	14.464
1367.0	14.488
1368.0	14.535
1369.0	14.565
1370.0	14.598
1371.0	14.607
1372.0	14.639
1373.0	14.676
1374.0	14.683
1375.0	14.710
1376.0	14.740
1377.0	14.756
1378.0	14.803
1379.0	14.838
1380.0	14.908
1381.0	14.899
1382.0	14.922
1383.0	14.948
1384.0	14.994
1385.0	15.027
1386.0	15.043
1387.0	15.080
1388.0	15.110
1389.0	15.143
1390.0	15.153
1391.0	15.171
1392.0	15.210
1393.0	15.258
1394.0	15.311
1395.0	15.313
1396.0	15.348
1397.0	15.381
1398.0	15.442
1399.0	15.499
1400.0	15.538
1401.0	15.560
1402.0	15.563
1403.0	15.576
1404.0	15.608
1405.0	15.668
1406.0	15.729
1407.0	15.776
1408.0	15.800
1409.0	15.815
1410.0	15.828
1411.0	15.841
1412.0	15.871
1413.0	15.891
1414.0	15.915
1415.0	15.922
1416.0	15.967
1417.0	15.986
1418.0	16.032
1419.0	16.058
1420.0	16.086
1421.0	16.115
1422.0	16.117
1423.0	16.159
1424.0	16.170
1425.0	16.213
1426.0	16.223
1427.0	16.225
1428.0	16.256
1429.0	16.279
1430.0	16.322
1431.0	16.318
1432.0	16.356
1433.0	16.355
1434.0	16.402
1435.0	16.397
1436.0	16.445
1437.0	16.454
1438.0	16.488
1439.0	16.489
1440.0	16.525
1441.0	16.515
1442.0	16.562
1443.0	16.559
1444.0	16.574
1445.0	16.573
1446.0	16.591
1447.0	16.640
1448.0	16.648
1449.0	16.662
1450.0	16.661
1451.0	16.691
1452.0	16.740
1453.0	16.728
1454.0	16.746
1455.0	16.740
1456.0	16.782
1457.0	16.783
1458.0	16.792
1459.0	16.801
1460.0	16.813
1461.0	16.815
1462.0	16.857
1463.0	16.884
1464.0	16.926
1465.0	16.903
1466.0	16.900
1467.0	16.882
1468.0	16.925
1469.0	16.932
1470.0	16.948
1471.0	16.937
1472.0	16.934
1473.0	16.916
1474.0	16.907
1475.0	16.917
1476.0	16.939
1477.0	16.968
1478.0	16.996
1479.0	16.991
1480.0	17.004
1481.0	17.001
1482.0	17.059
1483.0	17.080
1484.0	17.101
1485.0	17.062
1486.0	17.032
1487.0	17.019
1488.0	17.060
1489.0	17.069
1490.0	17.111
1491.0	17.086
1492.0	17.110
1493.0	17.099
1494.0	17.158
1495.0	17.155
1496.0	17.171
1497.0	17.154
1498.0	17.182
1499.0	17.170
1500.0	17.172
1501.0	17.171
1502.0	17.184
1503.0	17.220
1504.0	17.236
1505.0	17.244
1506.0	17.195
1507.0	17.206
1508.0	17.217
1509.0	17.225
1510.0	17.216
1511.0	17.228
1512.0	17.263
1513.0	17.287
1514.0	17.306
1515.0	17.321
1516.0	17.286
1517.0	17.241
1518.0	17.254
1519.0	17.266
1520.0	17.307
1521.0	17.298
1522.0	17.307
1523.0	17.307
1524.0	17.336
1525.0	17.351
1526.0	17.373
1527.0	17.338
1528.0	17.323
1529.0	17.327
1530.0	17.350
1531.0	17.406
1532.0	17.401
1533.0	17.418
1534.0	17.405
1535.0	17.424
1536.0	17.411
1537.0	17.400
1538.0	17.403
1539.0	17.423
1540.0	17.468
1541.0	17.477
1542.0	17.505
1543.0	17.484
1544.0	17.505
1545.0	17.514
1546.0	17.550
1547.0	17.538
1548.0	17.548
1549.0	17.561
1550.0	17.595
1551.0	17.580
1552.0	17.557
1553.0	17.532
1554.0	17.572
1555.0	17.603
1556.0	17.662
1557.0	17.613
1558.0	17.620
1559.0	17.592
1560.0	17.626
1561.0	17.660
1562.0	17.683
1563.0	17.674
1564.0	17.635
1565.0	17.638
1566.0	17.671
1567.0	17.667
1568.0	17.684
1569.0	17.693
1570.0	17.730
1571.0	17.718
1572.0	17.699
1573.0	17.729
1574.0	17.748
1575.0	17.783
1576.0	17.749
1577.0	17.779
1578.0	17.807
1579.0	17.814
1580.0	17.801
1581.0	17.786
1582.0	17.834
1583.0	17.781
1584.0	17.800
1585.0	17.777
1586.0	17.872
1587.0	17.869
1588.0	17.893
1589.0	17.865
1590.0	17.898
1591.0	17.935
1592.0	17.944
1593.0	17.962
1594.0	17.949
1595.0	17.953
1596.0	17.968
1597.0	18.046
1598.0	18.066
1599.0	18.048
1600.0	17.977
