[SUMMARY]
Software Information
Software Name:	UVProbe
Version:	2.43
Mode:	Normal Mode

Data Information
Data is:	Original
Analyst:	
Date/Time:	05/04/2023 11:30:19
Comments:	

Instrument Information
Instrument Name:	SolidSpec3700
Instrument Type:	SolidSpec-3700 Series
Model (S/N):	SolidSpec3700 ( A11085100264CZ )

[METHOD]
[Measurement Properties]
Wavelength Range (nm.):	285,00 to 1600,00
Scan Speed:	Medium
Sampling Interval:	1,0
Auto Sampling Interval:	Disabled
Scan Mode:	Single

[Sample Preparation Properties]
Weight:	
Volume:	
Dilution:	
Path Length:	
Additional Information:	

[Instrument Properties]
Instrument Type:	SolidSpec-3700 Series
Measuring Mode:	Transmittance
Slit Width:	5,0 nm
Time Constant:	1,0 sec.
Source Lamp:	Auto
Light Source Change Wavelength:	282,00 nm
Detector Unit:	Integral Sphere
Detector Change Wavelength:	900,00 nm  1650,00 nm
Grating Change Wavelength:	1000,00 nm
S/R Exchange:	Normal
Detector Lock:	Auto
Slit Program:	Fixed
Beam Mode:	Double
Stair Correction:	Disable

[Attachment Properties]
Attachment:	X-Y Stage
Sequence File:	R_robot_16-100-P1_optical_pads.xys

[Operation]
Threshold:	0,0010000
Points:	4
InterPolate:	Disabled
Average:	Disabled

[DATA]
Wavelength	Data
285.0	62.415
286.0	62.466
287.0	62.659
288.0	62.507
289.0	62.487
290.0	62.156
291.0	62.454
292.0	62.284
293.0	62.478
294.0	62.443
295.0	62.741
296.0	62.735
297.0	62.839
298.0	62.790
299.0	62.960
300.0	62.941
301.0	62.919
302.0	62.701
303.0	62.612
304.0	62.832
305.0	62.860
306.0	62.851
307.0	62.413
308.0	62.235
309.0	62.123
310.0	62.036
311.0	61.898
312.0	61.704
313.0	61.467
314.0	61.049
315.0	60.731
316.0	60.398
317.0	60.225
318.0	59.788
319.0	59.450
320.0	59.074
321.0	58.801
322.0	58.438
323.0	58.070
324.0	57.771
325.0	57.442
326.0	57.026
327.0	56.576
328.0	56.130
329.0	55.776
330.0	55.482
331.0	55.086
332.0	54.785
333.0	54.392
334.0	54.098
335.0	53.742
336.0	53.328
337.0	52.947
338.0	52.572
339.0	52.269
340.0	51.929
341.0	51.718
342.0	51.421
343.0	51.191
344.0	50.759
345.0	50.494
346.0	50.316
347.0	50.270
348.0	50.135
349.0	49.985
350.0	49.946
351.0	49.980
352.0	50.012
353.0	50.004
354.0	50.122
355.0	50.360
356.0	50.604
357.0	50.896
358.0	51.207
359.0	51.532
360.0	51.888
361.0	52.165
362.0	52.556
363.0	52.950
364.0	53.371
365.0	53.689
366.0	53.993
367.0	54.355
368.0	54.680
369.0	54.975
370.0	55.286
371.0	55.622
372.0	55.976
373.0	56.191
374.0	56.439
375.0	56.642
376.0	56.883
377.0	57.125
378.0	57.264
379.0	57.455
380.0	57.571
381.0	57.776
382.0	57.963
383.0	58.153
384.0	58.245
385.0	58.292
386.0	58.341
387.0	58.411
388.0	58.511
389.0	58.570
390.0	58.656
391.0	58.594
392.0	58.550
393.0	58.443
394.0	58.480
395.0	58.419
396.0	58.324
397.0	58.206
398.0	58.105
399.0	57.989
400.0	57.761
401.0	57.541
402.0	57.366
403.0	57.178
404.0	56.997
405.0	56.711
406.0	56.445
407.0	56.167
408.0	55.900
409.0	55.661
410.0	55.348
411.0	55.087
412.0	54.782
413.0	54.489
414.0	54.206
415.0	53.875
416.0	53.557
417.0	53.240
418.0	52.915
419.0	52.660
420.0	52.311
421.0	52.024
422.0	51.648
423.0	51.342
424.0	50.981
425.0	50.699
426.0	50.364
427.0	50.054
428.0	49.733
429.0	49.461
430.0	49.196
431.0	48.906
432.0	48.595
433.0	48.347
434.0	48.097
435.0	47.852
436.0	47.611
437.0	47.427
438.0	47.293
439.0	47.126
440.0	46.960
441.0	46.800
442.0	46.736
443.0	46.690
444.0	46.623
445.0	46.554
446.0	46.498
447.0	46.507
448.0	46.512
449.0	46.517
450.0	46.537
451.0	46.560
452.0	46.653
453.0	46.728
454.0	46.813
455.0	46.885
456.0	46.982
457.0	47.065
458.0	47.120
459.0	47.215
460.0	47.356
461.0	47.514
462.0	47.635
463.0	47.733
464.0	47.835
465.0	47.942
466.0	48.052
467.0	48.191
468.0	48.315
469.0	48.450
470.0	48.561
471.0	48.696
472.0	48.832
473.0	48.994
474.0	49.163
475.0	49.361
476.0	49.538
477.0	49.745
478.0	49.915
479.0	50.088
480.0	50.279
481.0	50.453
482.0	50.661
483.0	50.879
484.0	51.107
485.0	51.334
486.0	51.475
487.0	51.654
488.0	51.855
489.0	52.101
490.0	52.348
491.0	52.539
492.0	52.732
493.0	52.958
494.0	53.223
495.0	53.518
496.0	53.735
497.0	53.947
498.0	54.159
499.0	54.414
500.0	54.687
501.0	54.954
502.0	55.233
503.0	55.512
504.0	55.778
505.0	56.045
506.0	56.307
507.0	56.602
508.0	56.917
509.0	57.220
510.0	57.529
511.0	57.829
512.0	58.086
513.0	58.373
514.0	58.642
515.0	59.017
516.0	59.329
517.0	59.648
518.0	59.913
519.0	60.269
520.0	60.578
521.0	60.894
522.0	61.155
523.0	61.450
524.0	61.756
525.0	62.094
526.0	62.398
527.0	62.736
528.0	63.019
529.0	63.344
530.0	63.610
531.0	63.887
532.0	64.183
533.0	64.489
534.0	64.807
535.0	65.098
536.0	65.386
537.0	65.650
538.0	65.900
539.0	66.168
540.0	66.415
541.0	66.662
542.0	66.878
543.0	67.110
544.0	67.329
545.0	67.573
546.0	67.777
547.0	67.996
548.0	68.196
549.0	68.389
550.0	68.610
551.0	68.824
552.0	69.025
553.0	69.226
554.0	69.404
555.0	69.617
556.0	69.771
557.0	69.907
558.0	70.039
559.0	70.158
560.0	70.277
561.0	70.376
562.0	70.494
563.0	70.616
564.0	70.740
565.0	70.858
566.0	70.948
567.0	71.044
568.0	71.122
569.0	71.221
570.0	71.280
571.0	71.347
572.0	71.426
573.0	71.495
574.0	71.571
575.0	71.562
576.0	71.636
577.0	71.699
578.0	71.775
579.0	71.792
580.0	71.747
581.0	71.818
582.0	71.846
583.0	71.904
584.0	71.890
585.0	71.937
586.0	71.956
587.0	71.976
588.0	71.918
589.0	71.913
590.0	71.926
591.0	72.003
592.0	71.995
593.0	71.933
594.0	71.856
595.0	71.817
596.0	71.804
597.0	71.780
598.0	71.790
599.0	71.779
600.0	71.784
601.0	71.770
602.0	71.769
603.0	71.693
604.0	71.620
605.0	71.552
606.0	71.541
607.0	71.511
608.0	71.493
609.0	71.455
610.0	71.423
611.0	71.382
612.0	71.361
613.0	71.293
614.0	71.247
615.0	71.145
616.0	71.145
617.0	71.061
618.0	71.069
619.0	70.985
620.0	70.936
621.0	70.876
622.0	70.843
623.0	70.792
624.0	70.706
625.0	70.650
626.0	70.627
627.0	70.572
628.0	70.525
629.0	70.428
630.0	70.398
631.0	70.321
632.0	70.262
633.0	70.182
634.0	70.133
635.0	70.096
636.0	70.060
637.0	69.996
638.0	69.919
639.0	69.888
640.0	69.797
641.0	69.756
642.0	69.644
643.0	69.572
644.0	69.493
645.0	69.413
646.0	69.313
647.0	69.274
648.0	69.193
649.0	69.125
650.0	69.009
651.0	68.942
652.0	68.867
653.0	68.781
654.0	68.706
655.0	68.699
656.0	68.644
657.0	68.573
658.0	68.462
659.0	68.354
660.0	68.281
661.0	68.216
662.0	68.186
663.0	68.101
664.0	68.025
665.0	67.962
666.0	67.898
667.0	67.843
668.0	67.737
669.0	67.698
670.0	67.595
671.0	67.502
672.0	67.405
673.0	67.315
674.0	67.267
675.0	67.182
676.0	67.133
677.0	67.036
678.0	66.977
679.0	66.935
680.0	66.929
681.0	66.806
682.0	66.659
683.0	66.542
684.0	66.516
685.0	66.534
686.0	66.447
687.0	66.412
688.0	66.323
689.0	66.305
690.0	66.180
691.0	66.065
692.0	65.897
693.0	65.857
694.0	65.821
695.0	65.856
696.0	65.772
697.0	65.737
698.0	65.646
699.0	65.548
700.0	65.417
701.0	65.351
702.0	65.284
703.0	65.247
704.0	65.161
705.0	65.131
706.0	64.955
707.0	64.888
708.0	64.792
709.0	64.777
710.0	64.681
711.0	64.617
712.0	64.583
713.0	64.521
714.0	64.427
715.0	64.274
716.0	64.216
717.0	64.219
718.0	64.208
719.0	64.160
720.0	64.020
721.0	63.961
722.0	63.923
723.0	63.839
724.0	63.809
725.0	63.696
726.0	63.623
727.0	63.530
728.0	63.411
729.0	63.418
730.0	63.246
731.0	63.223
732.0	63.072
733.0	63.119
734.0	63.024
735.0	62.992
736.0	62.875
737.0	62.832
738.0	62.702
739.0	62.565
740.0	62.477
741.0	62.450
742.0	62.477
743.0	62.320
744.0	62.217
745.0	62.105
746.0	62.100
747.0	61.966
748.0	61.866
749.0	61.779
750.0	61.694
751.0	61.632
752.0	61.587
753.0	61.584
754.0	61.506
755.0	61.416
756.0	61.359
757.0	61.348
758.0	61.252
759.0	61.149
760.0	61.094
761.0	60.994
762.0	61.002
763.0	60.824
764.0	60.774
765.0	60.735
766.0	60.645
767.0	60.611
768.0	60.468
769.0	60.467
770.0	60.364
771.0	60.279
772.0	60.239
773.0	60.220
774.0	60.237
775.0	60.165
776.0	60.081
777.0	59.913
778.0	59.839
779.0	59.749
780.0	59.723
781.0	59.692
782.0	59.599
783.0	59.418
784.0	59.380
785.0	59.314
786.0	59.392
787.0	59.372
788.0	59.442
789.0	59.398
790.0	59.330
791.0	59.190
792.0	59.063
793.0	59.033
794.0	59.032
795.0	58.937
796.0	58.635
797.0	58.379
798.0	58.392
799.0	58.456
800.0	58.652
801.0	58.545
802.0	58.471
803.0	58.317
804.0	58.312
805.0	58.391
806.0	58.328
807.0	58.329
808.0	58.178
809.0	58.123
810.0	58.026
811.0	58.053
812.0	58.217
813.0	58.136
814.0	58.061
815.0	57.909
816.0	57.842
817.0	57.774
818.0	57.624
819.0	57.532
820.0	57.467
821.0	57.348
822.0	57.405
823.0	57.136
824.0	57.100
825.0	57.056
826.0	57.214
827.0	57.234
828.0	57.254
829.0	57.287
830.0	57.210
831.0	57.112
832.0	56.980
833.0	56.963
834.0	56.888
835.0	56.644
836.0	56.557
837.0	56.642
838.0	56.791
839.0	56.741
840.0	56.435
841.0	56.434
842.0	56.450
843.0	56.448
844.0	56.205
845.0	56.026
846.0	56.092
847.0	56.163
848.0	56.048
849.0	55.767
850.0	55.737
851.0	55.891
852.0	56.179
853.0	56.198
854.0	56.198
855.0	56.191
856.0	56.004
857.0	56.087
858.0	56.100
859.0	56.286
860.0	56.089
861.0	56.327
862.0	56.751
863.0	56.806
864.0	56.482
865.0	55.888
866.0	55.908
867.0	55.808
868.0	56.376
869.0	56.060
870.0	56.665
871.0	55.493
872.0	56.342
873.0	55.921
874.0	56.132
875.0	55.268
876.0	55.088
877.0	55.203
878.0	55.041
879.0	55.903
880.0	56.694
881.0	58.535
882.0	58.547
883.0	57.889
884.0	57.498
885.0	55.443
886.0	55.055
887.0	52.839
888.0	52.706
889.0	52.012
890.0	54.261
891.0	55.328
892.0	55.557
893.0	55.577
894.0	55.634
895.0	58.194
896.0	57.880
897.0	58.714
898.0	55.295
899.0	55.691
900.0	56.598
901.0	57.190
902.0	55.041
903.0	54.546
904.0	55.248
905.0	56.138
906.0	54.064
907.0	54.593
908.0	54.580
909.0	55.308
910.0	54.613
911.0	53.956
912.0	54.029
913.0	53.522
914.0	54.836
915.0	54.920
916.0	54.692
917.0	53.825
918.0	54.276
919.0	54.756
920.0	54.870
921.0	54.878
922.0	54.397
923.0	55.030
924.0	54.831
925.0	55.473
926.0	55.740
927.0	55.031
928.0	55.898
929.0	55.184
930.0	56.763
931.0	56.699
932.0	56.213
933.0	55.310
934.0	56.710
935.0	56.851
936.0	56.314
937.0	55.122
938.0	54.270
939.0	53.723
940.0	52.167
941.0	53.693
942.0	55.226
943.0	56.189
944.0	56.370
945.0	56.459
946.0	56.253
947.0	55.653
948.0	55.646
949.0	55.611
950.0	56.010
951.0	55.397
952.0	56.037
953.0	55.279
954.0	55.088
955.0	55.193
956.0	56.077
957.0	55.502
958.0	55.023
959.0	54.450
960.0	54.701
961.0	54.904
962.0	54.508
963.0	54.323
964.0	54.589
965.0	55.403
966.0	56.006
967.0	56.173
968.0	56.078
969.0	55.708
970.0	55.650
971.0	54.924
972.0	55.680
973.0	56.446
974.0	57.008
975.0	55.927
976.0	55.362
977.0	55.092
978.0	55.704
979.0	55.142
980.0	54.609
981.0	54.395
982.0	54.715
983.0	55.578
984.0	56.358
985.0	56.602
986.0	56.660
987.0	56.978
988.0	56.433
989.0	56.157
990.0	55.694
991.0	55.860
992.0	55.776
993.0	55.420
994.0	55.725
995.0	56.128
996.0	56.054
997.0	56.196
998.0	56.437
999.0	56.278
1000.0	56.151
1001.0	56.014
1002.0	56.583
1003.0	56.597
1004.0	56.620
1005.0	56.638
1006.0	56.632
1007.0	56.645
1008.0	56.679
1009.0	56.725
1010.0	56.731
1011.0	56.759
1012.0	56.778
1013.0	56.807
1014.0	56.824
1015.0	56.858
1016.0	56.851
1017.0	56.866
1018.0	56.883
1019.0	56.954
1020.0	56.987
1021.0	57.012
1022.0	57.035
1023.0	57.050
1024.0	57.072
1025.0	57.084
1026.0	57.086
1027.0	57.108
1028.0	57.113
1029.0	57.159
1030.0	57.193
1031.0	57.239
1032.0	57.236
1033.0	57.244
1034.0	57.280
1035.0	57.309
1036.0	57.320
1037.0	57.310
1038.0	57.339
1039.0	57.364
1040.0	57.405
1041.0	57.421
1042.0	57.438
1043.0	57.460
1044.0	57.506
1045.0	57.538
1046.0	57.564
1047.0	57.577
1048.0	57.609
1049.0	57.627
1050.0	57.672
1051.0	57.695
1052.0	57.718
1053.0	57.701
1054.0	57.734
1055.0	57.764
1056.0	57.793
1057.0	57.795
1058.0	57.797
1059.0	57.850
1060.0	57.902
1061.0	57.941
1062.0	57.965
1063.0	57.953
1064.0	57.982
1065.0	58.002
1066.0	58.061
1067.0	58.086
1068.0	58.112
1069.0	58.113
1070.0	58.144
1071.0	58.138
1072.0	58.180
1073.0	58.200
1074.0	58.250
1075.0	58.274
1076.0	58.288
1077.0	58.299
1078.0	58.309
1079.0	58.354
1080.0	58.383
1081.0	58.412
1082.0	58.435
1083.0	58.514
1084.0	58.540
1085.0	58.553
1086.0	58.538
1087.0	58.576
1088.0	58.602
1089.0	58.613
1090.0	58.612
1091.0	58.627
1092.0	58.644
1093.0	58.691
1094.0	58.743
1095.0	58.788
1096.0	58.793
1097.0	58.793
1098.0	58.818
1099.0	58.838
1100.0	58.838
1101.0	58.829
1102.0	58.876
1103.0	58.930
1104.0	58.951
1105.0	58.960
1106.0	58.974
1107.0	59.014
1108.0	59.032
1109.0	59.045
1110.0	59.074
1111.0	59.108
1112.0	59.113
1113.0	59.140
1114.0	59.155
1115.0	59.204
1116.0	59.210
1117.0	59.211
1118.0	59.234
1119.0	59.256
1120.0	59.256
1121.0	59.269
1122.0	59.281
1123.0	59.334
1124.0	59.339
1125.0	59.368
1126.0	59.377
1127.0	59.398
1128.0	59.416
1129.0	59.445
1130.0	59.467
1131.0	59.496
1132.0	59.499
1133.0	59.519
1134.0	59.518
1135.0	59.535
1136.0	59.553
1137.0	59.573
1138.0	59.583
1139.0	59.580
1140.0	59.572
1141.0	59.598
1142.0	59.613
1143.0	59.626
1144.0	59.621
1145.0	59.642
1146.0	59.670
1147.0	59.703
1148.0	59.703
1149.0	59.704
1150.0	59.717
1151.0	59.738
1152.0	59.739
1153.0	59.719
1154.0	59.725
1155.0	59.750
1156.0	59.765
1157.0	59.760
1158.0	59.777
1159.0	59.783
1160.0	59.785
1161.0	59.775
1162.0	59.806
1163.0	59.828
1164.0	59.821
1165.0	59.824
1166.0	59.803
1167.0	59.777
1168.0	59.754
1169.0	59.769
1170.0	59.790
1171.0	59.800
1172.0	59.822
1173.0	59.838
1174.0	59.868
1175.0	59.836
1176.0	59.858
1177.0	59.844
1178.0	59.844
1179.0	59.826
1180.0	59.792
1181.0	59.809
1182.0	59.796
1183.0	59.794
1184.0	59.796
1185.0	59.790
1186.0	59.776
1187.0	59.759
1188.0	59.771
1189.0	59.789
1190.0	59.786
1191.0	59.779
1192.0	59.772
1193.0	59.763
1194.0	59.734
1195.0	59.708
1196.0	59.703
1197.0	59.708
1198.0	59.716
1199.0	59.680
1200.0	59.676
1201.0	59.679
1202.0	59.699
1203.0	59.684
1204.0	59.621
1205.0	59.569
1206.0	59.530
1207.0	59.518
1208.0	59.517
1209.0	59.533
1210.0	59.534
1211.0	59.495
1212.0	59.445
1213.0	59.428
1214.0	59.426
1215.0	59.432
1216.0	59.411
1217.0	59.408
1218.0	59.371
1219.0	59.356
1220.0	59.318
1221.0	59.291
1222.0	59.269
1223.0	59.266
1224.0	59.260
1225.0	59.242
1226.0	59.240
1227.0	59.206
1228.0	59.172
1229.0	59.126
1230.0	59.097
1231.0	59.082
1232.0	59.052
1233.0	59.045
1234.0	59.003
1235.0	58.954
1236.0	58.912
1237.0	58.915
1238.0	58.914
1239.0	58.892
1240.0	58.854
1241.0	58.825
1242.0	58.828
1243.0	58.807
1244.0	58.776
1245.0	58.745
1246.0	58.714
1247.0	58.717
1248.0	58.665
1249.0	58.624
1250.0	58.563
1251.0	58.530
1252.0	58.491
1253.0	58.465
1254.0	58.444
1255.0	58.425
1256.0	58.391
1257.0	58.382
1258.0	58.337
1259.0	58.309
1260.0	58.252
1261.0	58.244
1262.0	58.211
1263.0	58.168
1264.0	58.132
1265.0	58.105
1266.0	58.074
1267.0	58.065
1268.0	58.035
1269.0	58.013
1270.0	57.958
1271.0	57.910
1272.0	57.890
1273.0	57.863
1274.0	57.842
1275.0	57.805
1276.0	57.781
1277.0	57.755
1278.0	57.705
1279.0	57.653
1280.0	57.629
1281.0	57.617
1282.0	57.579
1283.0	57.552
1284.0	57.511
1285.0	57.473
1286.0	57.438
1287.0	57.426
1288.0	57.419
1289.0	57.362
1290.0	57.307
1291.0	57.259
1292.0	57.229
1293.0	57.207
1294.0	57.173
1295.0	57.147
1296.0	57.109
1297.0	57.101
1298.0	57.043
1299.0	57.025
1300.0	56.975
1301.0	56.945
1302.0	56.865
1303.0	56.802
1304.0	56.744
1305.0	56.689
1306.0	56.640
1307.0	56.621
1308.0	56.605
1309.0	56.590
1310.0	56.541
1311.0	56.506
1312.0	56.476
1313.0	56.449
1314.0	56.401
1315.0	56.347
1316.0	56.317
1317.0	56.280
1318.0	56.231
1319.0	56.181
1320.0	56.168
1321.0	56.150
1322.0	56.139
1323.0	56.101
1324.0	56.065
1325.0	55.984
1326.0	55.928
1327.0	55.881
1328.0	55.874
1329.0	55.857
1330.0	55.854
1331.0	55.812
1332.0	55.778
1333.0	55.708
1334.0	55.680
1335.0	55.625
1336.0	55.577
1337.0	55.539
1338.0	55.487
1339.0	55.468
1340.0	55.404
1341.0	55.354
1342.0	55.277
1343.0	55.244
1344.0	55.222
1345.0	55.214
1346.0	55.186
1347.0	55.155
1348.0	55.107
1349.0	55.071
1350.0	55.058
1351.0	55.005
1352.0	54.974
1353.0	54.898
1354.0	54.861
1355.0	54.793
1356.0	54.744
1357.0	54.693
1358.0	54.680
1359.0	54.641
1360.0	54.620
1361.0	54.560
1362.0	54.529
1363.0	54.497
1364.0	54.433
1365.0	54.402
1366.0	54.365
1367.0	54.348
1368.0	54.303
1369.0	54.249
1370.0	54.207
1371.0	54.172
1372.0	54.138
1373.0	54.081
1374.0	54.046
1375.0	53.987
1376.0	53.947
1377.0	53.885
1378.0	53.850
1379.0	53.807
1380.0	53.760
1381.0	53.707
1382.0	53.657
1383.0	53.621
1384.0	53.604
1385.0	53.573
1386.0	53.536
1387.0	53.473
1388.0	53.472
1389.0	53.469
1390.0	53.442
1391.0	53.412
1392.0	53.361
1393.0	53.350
1394.0	53.299
1395.0	53.269
1396.0	53.239
1397.0	53.220
1398.0	53.178
1399.0	53.126
1400.0	53.092
1401.0	53.061
1402.0	53.032
1403.0	52.986
1404.0	52.950
1405.0	52.947
1406.0	52.912
1407.0	52.867
1408.0	52.819
1409.0	52.805
1410.0	52.805
1411.0	52.772
1412.0	52.701
1413.0	52.663
1414.0	52.623
1415.0	52.621
1416.0	52.572
1417.0	52.557
1418.0	52.527
1419.0	52.509
1420.0	52.489
1421.0	52.430
1422.0	52.386
1423.0	52.325
1424.0	52.324
1425.0	52.308
1426.0	52.283
1427.0	52.259
1428.0	52.212
1429.0	52.189
1430.0	52.152
1431.0	52.134
1432.0	52.110
1433.0	52.053
1434.0	52.032
1435.0	51.976
1436.0	52.001
1437.0	51.955
1438.0	51.916
1439.0	51.890
1440.0	51.879
1441.0	51.888
1442.0	51.803
1443.0	51.738
1444.0	51.653
1445.0	51.642
1446.0	51.653
1447.0	51.635
1448.0	51.620
1449.0	51.527
1450.0	51.505
1451.0	51.442
1452.0	51.429
1453.0	51.394
1454.0	51.348
1455.0	51.331
1456.0	51.317
1457.0	51.287
1458.0	51.246
1459.0	51.195
1460.0	51.187
1461.0	51.157
1462.0	51.130
1463.0	51.099
1464.0	51.092
1465.0	51.077
1466.0	51.057
1467.0	50.993
1468.0	50.942
1469.0	50.876
1470.0	50.893
1471.0	50.880
1472.0	50.848
1473.0	50.814
1474.0	50.751
1475.0	50.744
1476.0	50.674
1477.0	50.689
1478.0	50.676
1479.0	50.701
1480.0	50.667
1481.0	50.596
1482.0	50.545
1483.0	50.504
1484.0	50.487
1485.0	50.452
1486.0	50.450
1487.0	50.433
1488.0	50.397
1489.0	50.339
1490.0	50.331
1491.0	50.333
1492.0	50.322
1493.0	50.304
1494.0	50.263
1495.0	50.248
1496.0	50.189
1497.0	50.168
1498.0	50.120
1499.0	50.123
1500.0	50.090
1501.0	50.059
1502.0	50.018
1503.0	49.966
1504.0	49.937
1505.0	49.884
1506.0	49.877
1507.0	49.843
1508.0	49.844
1509.0	49.812
1510.0	49.810
1511.0	49.747
1512.0	49.684
1513.0	49.626
1514.0	49.646
1515.0	49.633
1516.0	49.635
1517.0	49.565
1518.0	49.534
1519.0	49.467
1520.0	49.454
1521.0	49.472
1522.0	49.479
1523.0	49.441
1524.0	49.383
1525.0	49.328
1526.0	49.336
1527.0	49.355
1528.0	49.327
1529.0	49.273
1530.0	49.203
1531.0	49.180
1532.0	49.127
1533.0	49.118
1534.0	49.077
1535.0	49.122
1536.0	49.075
1537.0	49.093
1538.0	49.024
1539.0	48.969
1540.0	48.919
1541.0	48.884
1542.0	48.893
1543.0	48.908
1544.0	48.835
1545.0	48.799
1546.0	48.745
1547.0	48.809
1548.0	48.805
1549.0	48.750
1550.0	48.703
1551.0	48.685
1552.0	48.696
1553.0	48.658
1554.0	48.603
1555.0	48.563
1556.0	48.521
1557.0	48.526
1558.0	48.525
1559.0	48.504
1560.0	48.463
1561.0	48.418
1562.0	48.420
1563.0	48.396
1564.0	48.397
1565.0	48.392
1566.0	48.366
1567.0	48.351
1568.0	48.320
1569.0	48.281
1570.0	48.234
1571.0	48.197
1572.0	48.230
1573.0	48.208
1574.0	48.216
1575.0	48.097
1576.0	48.059
1577.0	47.993
1578.0	48.024
1579.0	48.049
1580.0	48.079
1581.0	48.046
1582.0	47.985
1583.0	47.969
1584.0	47.974
1585.0	47.931
1586.0	47.856
1587.0	47.810
1588.0	47.887
1589.0	47.857
1590.0	47.838
1591.0	47.761
1592.0	47.725
1593.0	47.677
1594.0	47.628
1595.0	47.605
1596.0	47.616
1597.0	47.589
1598.0	47.589
1599.0	47.514
1600.0	47.460
