[SUMMARY]
Software Information
Software Name:	UVProbe
Version:	2.43
Mode:	Normal Mode

Data Information
Data is:	Original
Analyst:	
Date/Time:	05/04/2023 11:42:54
Comments:	

Instrument Information
Instrument Name:	SolidSpec3700
Instrument Type:	SolidSpec-3700 Series
Model (S/N):	SolidSpec3700 ( A11085100264CZ )

[METHOD]
[Measurement Properties]
Wavelength Range (nm.):	285,00 to 1600,00
Scan Speed:	Medium
Sampling Interval:	1,0
Auto Sampling Interval:	Disabled
Scan Mode:	Single

[Sample Preparation Properties]
Weight:	
Volume:	
Dilution:	
Path Length:	
Additional Information:	

[Instrument Properties]
Instrument Type:	SolidSpec-3700 Series
Measuring Mode:	Transmittance
Slit Width:	5,0 nm
Time Constant:	1,0 sec.
Source Lamp:	Auto
Light Source Change Wavelength:	282,00 nm
Detector Unit:	Integral Sphere
Detector Change Wavelength:	900,00 nm  1650,00 nm
Grating Change Wavelength:	1000,00 nm
S/R Exchange:	Normal
Detector Lock:	Auto
Slit Program:	Fixed
Beam Mode:	Double
Stair Correction:	Disable

[Attachment Properties]
Attachment:	X-Y Stage
Sequence File:	R_robot_16-100-P1_optical_pads.xys

[Operation]
Threshold:	0,0010000
Points:	4
InterPolate:	Disabled
Average:	Disabled

[DATA]
Wavelength	Data
285.0	60.364
286.0	60.447
287.0	60.429
288.0	60.137
289.0	59.901
290.0	59.592
291.0	59.609
292.0	59.232
293.0	59.136
294.0	58.666
295.0	58.580
296.0	58.262
297.0	58.147
298.0	57.792
299.0	57.548
300.0	57.133
301.0	56.651
302.0	55.985
303.0	55.397
304.0	55.261
305.0	55.026
306.0	54.545
307.0	53.747
308.0	53.097
309.0	52.486
310.0	51.860
311.0	51.177
312.0	50.675
313.0	50.195
314.0	49.529
315.0	48.862
316.0	48.145
317.0	47.611
318.0	46.991
319.0	46.402
320.0	45.894
321.0	45.447
322.0	44.842
323.0	44.176
324.0	43.527
325.0	43.006
326.0	42.469
327.0	41.856
328.0	41.241
329.0	40.665
330.0	40.164
331.0	39.608
332.0	39.116
333.0	38.571
334.0	38.125
335.0	37.667
336.0	37.272
337.0	36.774
338.0	36.289
339.0	35.880
340.0	35.566
341.0	35.258
342.0	34.902
343.0	34.540
344.0	34.125
345.0	33.778
346.0	33.507
347.0	33.314
348.0	33.115
349.0	32.902
350.0	32.755
351.0	32.595
352.0	32.431
353.0	32.226
354.0	32.120
355.0	32.059
356.0	31.962
357.0	31.875
358.0	31.845
359.0	31.874
360.0	31.859
361.0	31.756
362.0	31.684
363.0	31.666
364.0	31.706
365.0	31.675
366.0	31.651
367.0	31.643
368.0	31.688
369.0	31.680
370.0	31.675
371.0	31.702
372.0	31.779
373.0	31.838
374.0	31.913
375.0	31.938
376.0	32.029
377.0	32.048
378.0	32.117
379.0	32.155
380.0	32.250
381.0	32.342
382.0	32.467
383.0	32.556
384.0	32.652
385.0	32.733
386.0	32.842
387.0	32.989
388.0	33.119
389.0	33.301
390.0	33.420
391.0	33.539
392.0	33.589
393.0	33.679
394.0	33.788
395.0	33.904
396.0	34.011
397.0	34.129
398.0	34.233
399.0	34.312
400.0	34.369
401.0	34.466
402.0	34.580
403.0	34.657
404.0	34.731
405.0	34.754
406.0	34.794
407.0	34.793
408.0	34.805
409.0	34.817
410.0	34.811
411.0	34.785
412.0	34.740
413.0	34.721
414.0	34.728
415.0	34.707
416.0	34.678
417.0	34.633
418.0	34.596
419.0	34.592
420.0	34.564
421.0	34.547
422.0	34.517
423.0	34.510
424.0	34.486
425.0	34.453
426.0	34.391
427.0	34.332
428.0	34.266
429.0	34.229
430.0	34.179
431.0	34.143
432.0	34.102
433.0	34.083
434.0	34.065
435.0	34.077
436.0	34.135
437.0	34.231
438.0	34.354
439.0	34.486
440.0	34.663
441.0	34.892
442.0	35.192
443.0	35.514
444.0	35.816
445.0	36.138
446.0	36.461
447.0	36.822
448.0	37.169
449.0	37.536
450.0	37.873
451.0	38.207
452.0	38.532
453.0	38.871
454.0	39.212
455.0	39.525
456.0	39.834
457.0	40.113
458.0	40.365
459.0	40.638
460.0	40.922
461.0	41.222
462.0	41.503
463.0	41.772
464.0	42.008
465.0	42.223
466.0	42.426
467.0	42.679
468.0	42.922
469.0	43.185
470.0	43.400
471.0	43.625
472.0	43.867
473.0	44.110
474.0	44.381
475.0	44.615
476.0	44.885
477.0	45.135
478.0	45.395
479.0	45.631
480.0	45.918
481.0	46.170
482.0	46.457
483.0	46.712
484.0	46.962
485.0	47.218
486.0	47.430
487.0	47.674
488.0	47.893
489.0	48.178
490.0	48.465
491.0	48.757
492.0	48.994
493.0	49.264
494.0	49.537
495.0	49.823
496.0	50.079
497.0	50.368
498.0	50.667
499.0	50.978
500.0	51.255
501.0	51.560
502.0	51.874
503.0	52.182
504.0	52.486
505.0	52.803
506.0	53.138
507.0	53.467
508.0	53.738
509.0	54.072
510.0	54.394
511.0	54.756
512.0	54.994
513.0	55.298
514.0	55.593
515.0	55.949
516.0	56.238
517.0	56.518
518.0	56.789
519.0	57.098
520.0	57.403
521.0	57.711
522.0	58.003
523.0	58.305
524.0	58.598
525.0	58.876
526.0	59.134
527.0	59.447
528.0	59.701
529.0	59.983
530.0	60.237
531.0	60.541
532.0	60.782
533.0	61.037
534.0	61.239
535.0	61.477
536.0	61.685
537.0	61.927
538.0	62.129
539.0	62.310
540.0	62.482
541.0	62.688
542.0	62.867
543.0	63.071
544.0	63.223
545.0	63.393
546.0	63.502
547.0	63.670
548.0	63.797
549.0	63.915
550.0	64.017
551.0	64.140
552.0	64.293
553.0	64.398
554.0	64.494
555.0	64.590
556.0	64.723
557.0	64.822
558.0	64.912
559.0	64.945
560.0	65.006
561.0	65.049
562.0	65.104
563.0	65.161
564.0	65.184
565.0	65.226
566.0	65.262
567.0	65.291
568.0	65.321
569.0	65.332
570.0	65.368
571.0	65.378
572.0	65.424
573.0	65.427
574.0	65.455
575.0	65.430
576.0	65.422
577.0	65.414
578.0	65.408
579.0	65.431
580.0	65.380
581.0	65.400
582.0	65.371
583.0	65.373
584.0	65.331
585.0	65.321
586.0	65.315
587.0	65.305
588.0	65.266
589.0	65.228
590.0	65.225
591.0	65.255
592.0	65.228
593.0	65.156
594.0	65.071
595.0	65.025
596.0	64.981
597.0	64.949
598.0	64.923
599.0	64.920
600.0	64.890
601.0	64.902
602.0	64.831
603.0	64.804
604.0	64.705
605.0	64.659
606.0	64.565
607.0	64.556
608.0	64.527
609.0	64.484
610.0	64.431
611.0	64.365
612.0	64.313
613.0	64.226
614.0	64.196
615.0	64.146
616.0	64.122
617.0	64.044
618.0	64.011
619.0	63.981
620.0	63.972
621.0	63.946
622.0	63.869
623.0	63.828
624.0	63.771
625.0	63.735
626.0	63.661
627.0	63.599
628.0	63.549
629.0	63.473
630.0	63.402
631.0	63.332
632.0	63.303
633.0	63.283
634.0	63.249
635.0	63.156
636.0	63.093
637.0	63.028
638.0	63.041
639.0	63.004
640.0	62.950
641.0	62.876
642.0	62.862
643.0	62.773
644.0	62.727
645.0	62.590
646.0	62.582
647.0	62.530
648.0	62.508
649.0	62.429
650.0	62.384
651.0	62.330
652.0	62.258
653.0	62.154
654.0	62.126
655.0	62.131
656.0	62.107
657.0	62.003
658.0	61.913
659.0	61.871
660.0	61.859
661.0	61.838
662.0	61.787
663.0	61.721
664.0	61.658
665.0	61.609
666.0	61.531
667.0	61.503
668.0	61.443
669.0	61.415
670.0	61.317
671.0	61.275
672.0	61.271
673.0	61.278
674.0	61.217
675.0	61.154
676.0	61.106
677.0	61.090
678.0	60.998
679.0	60.919
680.0	60.923
681.0	60.927
682.0	60.874
683.0	60.761
684.0	60.732
685.0	60.742
686.0	60.737
687.0	60.697
688.0	60.716
689.0	60.682
690.0	60.664
691.0	60.609
692.0	60.613
693.0	60.636
694.0	60.632
695.0	60.633
696.0	60.569
697.0	60.566
698.0	60.485
699.0	60.484
700.0	60.453
701.0	60.452
702.0	60.450
703.0	60.362
704.0	60.326
705.0	60.283
706.0	60.263
707.0	60.241
708.0	60.168
709.0	60.152
710.0	60.146
711.0	60.145
712.0	60.109
713.0	60.054
714.0	60.027
715.0	59.956
716.0	59.903
717.0	59.921
718.0	59.968
719.0	60.010
720.0	59.965
721.0	59.981
722.0	59.986
723.0	59.901
724.0	59.819
725.0	59.783
726.0	59.785
727.0	59.786
728.0	59.753
729.0	59.792
730.0	59.683
731.0	59.650
732.0	59.581
733.0	59.618
734.0	59.573
735.0	59.549
736.0	59.456
737.0	59.407
738.0	59.364
739.0	59.341
740.0	59.395
741.0	59.323
742.0	59.406
743.0	59.313
744.0	59.321
745.0	59.246
746.0	59.160
747.0	59.062
748.0	59.014
749.0	59.038
750.0	58.986
751.0	58.941
752.0	58.939
753.0	58.936
754.0	58.910
755.0	58.875
756.0	58.944
757.0	58.889
758.0	58.793
759.0	58.613
760.0	58.659
761.0	58.724
762.0	58.819
763.0	58.756
764.0	58.727
765.0	58.667
766.0	58.629
767.0	58.510
768.0	58.612
769.0	58.544
770.0	58.521
771.0	58.436
772.0	58.480
773.0	58.445
774.0	58.377
775.0	58.309
776.0	58.336
777.0	58.271
778.0	58.252
779.0	58.242
780.0	58.258
781.0	58.282
782.0	58.234
783.0	58.084
784.0	58.052
785.0	58.009
786.0	58.134
787.0	58.153
788.0	58.209
789.0	58.196
790.0	58.217
791.0	58.145
792.0	58.149
793.0	58.034
794.0	58.044
795.0	57.926
796.0	57.921
797.0	57.780
798.0	57.805
799.0	57.854
800.0	58.068
801.0	58.107
802.0	58.010
803.0	57.900
804.0	57.823
805.0	57.873
806.0	57.863
807.0	57.895
808.0	57.808
809.0	57.705
810.0	57.685
811.0	57.658
812.0	57.760
813.0	57.636
814.0	57.640
815.0	57.599
816.0	57.686
817.0	57.631
818.0	57.638
819.0	57.512
820.0	57.545
821.0	57.426
822.0	57.573
823.0	57.440
824.0	57.356
825.0	57.318
826.0	57.253
827.0	57.300
828.0	57.397
829.0	57.461
830.0	57.519
831.0	57.336
832.0	57.477
833.0	57.515
834.0	57.345
835.0	57.118
836.0	56.851
837.0	57.162
838.0	57.260
839.0	57.343
840.0	57.031
841.0	57.003
842.0	56.941
843.0	56.948
844.0	56.867
845.0	56.654
846.0	56.653
847.0	56.466
848.0	56.676
849.0	56.643
850.0	56.987
851.0	57.099
852.0	57.120
853.0	56.999
854.0	56.882
855.0	57.314
856.0	56.406
857.0	56.277
858.0	55.997
859.0	56.790
860.0	57.305
861.0	57.073
862.0	57.193
863.0	56.765
864.0	56.648
865.0	56.348
866.0	56.558
867.0	56.876
868.0	56.817
869.0	56.954
870.0	56.487
871.0	56.341
872.0	56.045
873.0	56.338
874.0	56.384
875.0	56.300
876.0	57.613
877.0	57.467
878.0	57.790
879.0	57.348
880.0	58.289
881.0	59.428
882.0	58.196
883.0	58.625
884.0	57.592
885.0	57.264
886.0	55.395
887.0	55.167
888.0	56.549
889.0	56.525
890.0	55.846
891.0	54.998
892.0	56.053
893.0	55.375
894.0	55.816
895.0	59.816
896.0	60.954
897.0	63.953
898.0	57.549
899.0	58.168
900.0	54.300
901.0	57.074
902.0	57.853
903.0	58.044
904.0	58.879
905.0	56.440
906.0	56.341
907.0	55.395
908.0	56.522
909.0	58.174
910.0	57.146
911.0	57.686
912.0	56.595
913.0	59.171
914.0	59.829
915.0	59.239
916.0	57.131
917.0	56.043
918.0	55.987
919.0	55.901
920.0	56.082
921.0	56.980
922.0	56.700
923.0	57.162
924.0	57.925
925.0	57.875
926.0	58.705
927.0	57.636
928.0	58.244
929.0	56.849
930.0	56.289
931.0	57.797
932.0	57.407
933.0	58.272
934.0	58.026
935.0	58.716
936.0	58.543
937.0	58.292
938.0	57.488
939.0	58.004
940.0	57.418
941.0	58.164
942.0	59.114
943.0	59.129
944.0	59.633
945.0	58.606
946.0	58.881
947.0	58.092
948.0	58.513
949.0	57.760
950.0	58.109
951.0	56.854
952.0	57.315
953.0	56.790
954.0	57.739
955.0	58.184
956.0	58.632
957.0	58.341
958.0	57.860
959.0	57.032
960.0	56.802
961.0	56.867
962.0	58.180
963.0	58.428
964.0	58.427
965.0	57.968
966.0	58.420
967.0	59.176
968.0	59.596
969.0	58.997
970.0	58.742
971.0	58.194
972.0	58.692
973.0	59.421
974.0	59.759
975.0	58.880
976.0	57.335
977.0	57.099
978.0	57.862
979.0	58.299
980.0	57.556
981.0	57.456
982.0	57.136
983.0	58.300
984.0	58.558
985.0	59.364
986.0	59.809
987.0	59.342
988.0	59.145
989.0	58.133
990.0	58.517
991.0	58.701
992.0	59.067
993.0	59.198
994.0	58.823
995.0	59.040
996.0	59.178
997.0	59.225
998.0	59.013
999.0	58.808
1000.0	58.888
1001.0	58.935
1002.0	58.862
1003.0	58.872
1004.0	58.859
1005.0	58.848
1006.0	58.865
1007.0	58.897
1008.0	58.932
1009.0	58.945
1010.0	58.985
1011.0	59.007
1012.0	59.049
1013.0	59.011
1014.0	59.021
1015.0	59.052
1016.0	59.109
1017.0	59.123
1018.0	59.144
1019.0	59.160
1020.0	59.197
1021.0	59.197
1022.0	59.193
1023.0	59.202
1024.0	59.225
1025.0	59.240
1026.0	59.268
1027.0	59.292
1028.0	59.353
1029.0	59.352
1030.0	59.391
1031.0	59.395
1032.0	59.408
1033.0	59.391
1034.0	59.428
1035.0	59.461
1036.0	59.497
1037.0	59.489
1038.0	59.498
1039.0	59.507
1040.0	59.516
1041.0	59.550
1042.0	59.565
1043.0	59.592
1044.0	59.610
1045.0	59.627
1046.0	59.675
1047.0	59.672
1048.0	59.683
1049.0	59.673
1050.0	59.718
1051.0	59.756
1052.0	59.785
1053.0	59.768
1054.0	59.745
1055.0	59.770
1056.0	59.805
1057.0	59.851
1058.0	59.848
1059.0	59.853
1060.0	59.873
1061.0	59.885
1062.0	59.918
1063.0	59.931
1064.0	59.956
1065.0	59.965
1066.0	59.968
1067.0	59.968
1068.0	59.973
1069.0	59.987
1070.0	60.009
1071.0	60.037
1072.0	60.044
1073.0	60.061
1074.0	60.077
1075.0	60.106
1076.0	60.105
1077.0	60.111
1078.0	60.114
1079.0	60.174
1080.0	60.189
1081.0	60.213
1082.0	60.199
1083.0	60.222
1084.0	60.227
1085.0	60.234
1086.0	60.233
1087.0	60.261
1088.0	60.284
1089.0	60.294
1090.0	60.291
1091.0	60.285
1092.0	60.325
1093.0	60.323
1094.0	60.346
1095.0	60.318
1096.0	60.341
1097.0	60.333
1098.0	60.359
1099.0	60.357
1100.0	60.355
1101.0	60.368
1102.0	60.407
1103.0	60.448
1104.0	60.465
1105.0	60.454
1106.0	60.432
1107.0	60.447
1108.0	60.457
1109.0	60.479
1110.0	60.469
1111.0	60.481
1112.0	60.490
1113.0	60.512
1114.0	60.523
1115.0	60.529
1116.0	60.520
1117.0	60.509
1118.0	60.533
1119.0	60.559
1120.0	60.579
1121.0	60.584
1122.0	60.574
1123.0	60.582
1124.0	60.591
1125.0	60.607
1126.0	60.606
1127.0	60.608
1128.0	60.608
1129.0	60.607
1130.0	60.586
1131.0	60.604
1132.0	60.636
1133.0	60.664
1134.0	60.643
1135.0	60.644
1136.0	60.651
1137.0	60.674
1138.0	60.654
1139.0	60.646
1140.0	60.630
1141.0	60.635
1142.0	60.652
1143.0	60.654
1144.0	60.672
1145.0	60.680
1146.0	60.678
1147.0	60.672
1148.0	60.667
1149.0	60.675
1150.0	60.671
1151.0	60.680
1152.0	60.693
1153.0	60.703
1154.0	60.693
1155.0	60.679
1156.0	60.658
1157.0	60.636
1158.0	60.639
1159.0	60.642
1160.0	60.642
1161.0	60.627
1162.0	60.665
1163.0	60.674
1164.0	60.671
1165.0	60.646
1166.0	60.636
1167.0	60.614
1168.0	60.592
1169.0	60.583
1170.0	60.589
1171.0	60.580
1172.0	60.595
1173.0	60.592
1174.0	60.607
1175.0	60.563
1176.0	60.556
1177.0	60.521
1178.0	60.511
1179.0	60.483
1180.0	60.475
1181.0	60.476
1182.0	60.461
1183.0	60.445
1184.0	60.452
1185.0	60.472
1186.0	60.455
1187.0	60.428
1188.0	60.403
1189.0	60.402
1190.0	60.384
1191.0	60.376
1192.0	60.364
1193.0	60.349
1194.0	60.318
1195.0	60.302
1196.0	60.275
1197.0	60.285
1198.0	60.263
1199.0	60.237
1200.0	60.199
1201.0	60.187
1202.0	60.200
1203.0	60.191
1204.0	60.174
1205.0	60.160
1206.0	60.148
1207.0	60.115
1208.0	60.071
1209.0	60.045
1210.0	60.029
1211.0	60.008
1212.0	59.963
1213.0	59.938
1214.0	59.943
1215.0	59.940
1216.0	59.939
1217.0	59.901
1218.0	59.874
1219.0	59.847
1220.0	59.817
1221.0	59.797
1222.0	59.744
1223.0	59.717
1224.0	59.696
1225.0	59.700
1226.0	59.695
1227.0	59.658
1228.0	59.638
1229.0	59.622
1230.0	59.590
1231.0	59.567
1232.0	59.520
1233.0	59.487
1234.0	59.414
1235.0	59.384
1236.0	59.384
1237.0	59.394
1238.0	59.353
1239.0	59.321
1240.0	59.287
1241.0	59.266
1242.0	59.254
1243.0	59.231
1244.0	59.200
1245.0	59.139
1246.0	59.113
1247.0	59.118
1248.0	59.095
1249.0	59.034
1250.0	58.977
1251.0	58.966
1252.0	58.945
1253.0	58.915
1254.0	58.871
1255.0	58.849
1256.0	58.817
1257.0	58.787
1258.0	58.751
1259.0	58.719
1260.0	58.683
1261.0	58.663
1262.0	58.652
1263.0	58.627
1264.0	58.611
1265.0	58.556
1266.0	58.517
1267.0	58.497
1268.0	58.482
1269.0	58.480
1270.0	58.404
1271.0	58.391
1272.0	58.338
1273.0	58.340
1274.0	58.288
1275.0	58.287
1276.0	58.237
1277.0	58.198
1278.0	58.153
1279.0	58.130
1280.0	58.104
1281.0	58.056
1282.0	58.036
1283.0	58.006
1284.0	57.983
1285.0	57.930
1286.0	57.927
1287.0	57.904
1288.0	57.893
1289.0	57.839
1290.0	57.807
1291.0	57.772
1292.0	57.754
1293.0	57.712
1294.0	57.679
1295.0	57.634
1296.0	57.615
1297.0	57.591
1298.0	57.575
1299.0	57.547
1300.0	57.487
1301.0	57.420
1302.0	57.370
1303.0	57.350
1304.0	57.323
1305.0	57.262
1306.0	57.224
1307.0	57.190
1308.0	57.195
1309.0	57.145
1310.0	57.094
1311.0	57.020
1312.0	56.985
1313.0	56.976
1314.0	56.966
1315.0	56.958
1316.0	56.923
1317.0	56.867
1318.0	56.812
1319.0	56.760
1320.0	56.727
1321.0	56.687
1322.0	56.645
1323.0	56.628
1324.0	56.576
1325.0	56.542
1326.0	56.503
1327.0	56.495
1328.0	56.459
1329.0	56.390
1330.0	56.382
1331.0	56.334
1332.0	56.325
1333.0	56.240
1334.0	56.220
1335.0	56.200
1336.0	56.188
1337.0	56.168
1338.0	56.135
1339.0	56.091
1340.0	56.035
1341.0	55.971
1342.0	55.940
1343.0	55.899
1344.0	55.865
1345.0	55.805
1346.0	55.792
1347.0	55.758
1348.0	55.717
1349.0	55.673
1350.0	55.660
1351.0	55.639
1352.0	55.638
1353.0	55.562
1354.0	55.552
1355.0	55.475
1356.0	55.468
1357.0	55.414
1358.0	55.387
1359.0	55.358
1360.0	55.324
1361.0	55.282
1362.0	55.243
1363.0	55.210
1364.0	55.180
1365.0	55.118
1366.0	55.089
1367.0	55.054
1368.0	55.035
1369.0	54.986
1370.0	54.948
1371.0	54.924
1372.0	54.905
1373.0	54.887
1374.0	54.850
1375.0	54.786
1376.0	54.712
1377.0	54.664
1378.0	54.661
1379.0	54.642
1380.0	54.602
1381.0	54.553
1382.0	54.493
1383.0	54.468
1384.0	54.414
1385.0	54.369
1386.0	54.306
1387.0	54.255
1388.0	54.293
1389.0	54.277
1390.0	54.263
1391.0	54.197
1392.0	54.154
1393.0	54.116
1394.0	54.092
1395.0	54.087
1396.0	54.102
1397.0	54.053
1398.0	53.995
1399.0	53.914
1400.0	53.898
1401.0	53.865
1402.0	53.838
1403.0	53.816
1404.0	53.812
1405.0	53.802
1406.0	53.751
1407.0	53.710
1408.0	53.680
1409.0	53.662
1410.0	53.637
1411.0	53.587
1412.0	53.547
1413.0	53.516
1414.0	53.522
1415.0	53.499
1416.0	53.449
1417.0	53.419
1418.0	53.385
1419.0	53.396
1420.0	53.378
1421.0	53.350
1422.0	53.288
1423.0	53.235
1424.0	53.186
1425.0	53.177
1426.0	53.151
1427.0	53.165
1428.0	53.122
1429.0	53.112
1430.0	53.059
1431.0	53.025
1432.0	52.971
1433.0	52.944
1434.0	52.919
1435.0	52.877
1436.0	52.870
1437.0	52.847
1438.0	52.818
1439.0	52.792
1440.0	52.765
1441.0	52.718
1442.0	52.627
1443.0	52.586
1444.0	52.570
1445.0	52.589
1446.0	52.556
1447.0	52.533
1448.0	52.500
1449.0	52.444
1450.0	52.444
1451.0	52.421
1452.0	52.400
1453.0	52.330
1454.0	52.281
1455.0	52.286
1456.0	52.249
1457.0	52.205
1458.0	52.184
1459.0	52.187
1460.0	52.193
1461.0	52.160
1462.0	52.144
1463.0	52.117
1464.0	52.115
1465.0	52.098
1466.0	52.087
1467.0	52.031
1468.0	51.991
1469.0	51.945
1470.0	51.910
1471.0	51.866
1472.0	51.837
1473.0	51.832
1474.0	51.800
1475.0	51.739
1476.0	51.693
1477.0	51.703
1478.0	51.722
1479.0	51.705
1480.0	51.647
1481.0	51.574
1482.0	51.553
1483.0	51.534
1484.0	51.502
1485.0	51.477
1486.0	51.463
1487.0	51.485
1488.0	51.457
1489.0	51.425
1490.0	51.373
1491.0	51.310
1492.0	51.263
1493.0	51.279
1494.0	51.282
1495.0	51.226
1496.0	51.167
1497.0	51.142
1498.0	51.134
1499.0	51.091
1500.0	51.053
1501.0	51.064
1502.0	51.063
1503.0	51.018
1504.0	50.982
1505.0	50.939
1506.0	50.942
1507.0	50.877
1508.0	50.870
1509.0	50.810
1510.0	50.820
1511.0	50.770
1512.0	50.730
1513.0	50.679
1514.0	50.620
1515.0	50.637
1516.0	50.608
1517.0	50.620
1518.0	50.567
1519.0	50.568
1520.0	50.518
1521.0	50.519
1522.0	50.473
1523.0	50.471
1524.0	50.492
1525.0	50.458
1526.0	50.482
1527.0	50.434
1528.0	50.376
1529.0	50.285
1530.0	50.256
1531.0	50.261
1532.0	50.247
1533.0	50.222
1534.0	50.198
1535.0	50.157
1536.0	50.092
1537.0	50.114
1538.0	50.138
1539.0	50.120
1540.0	50.056
1541.0	50.009
1542.0	49.959
1543.0	49.952
1544.0	49.919
1545.0	49.922
1546.0	49.890
1547.0	49.870
1548.0	49.844
1549.0	49.791
1550.0	49.810
1551.0	49.804
1552.0	49.786
1553.0	49.716
1554.0	49.632
1555.0	49.649
1556.0	49.596
1557.0	49.616
1558.0	49.592
1559.0	49.596
1560.0	49.551
1561.0	49.522
1562.0	49.463
1563.0	49.483
1564.0	49.449
1565.0	49.447
1566.0	49.388
1567.0	49.368
1568.0	49.374
1569.0	49.369
1570.0	49.350
1571.0	49.377
1572.0	49.401
1573.0	49.407
1574.0	49.324
1575.0	49.238
1576.0	49.199
1577.0	49.220
1578.0	49.219
1579.0	49.185
1580.0	49.140
1581.0	49.134
1582.0	49.162
1583.0	49.123
1584.0	49.080
1585.0	49.036
1586.0	49.019
1587.0	49.038
1588.0	49.031
1589.0	49.009
1590.0	49.012
1591.0	48.903
1592.0	48.837
1593.0	48.747
1594.0	48.740
1595.0	48.735
1596.0	48.752
1597.0	48.772
1598.0	48.790
1599.0	48.681
1600.0	48.599
