[SUMMARY]
Software Information
Software Name:	UVProbe
Version:	2.43
Mode:	Normal Mode

Data Information
Data is:	Original
Analyst:	
Date/Time:	06/03/2023 12:29:32
Comments:	

Instrument Information
Instrument Name:	SolidSpec3700
Instrument Type:	SolidSpec-3700 Series
Model (S/N):	SolidSpec3700 ( A11085100264CZ )

[METHOD]
[Measurement Properties]
Wavelength Range (nm.):	285,00 to 2000,00
Scan Speed:	Medium
Sampling Interval:	1,0
Auto Sampling Interval:	Disabled
Scan Mode:	Single

[Sample Preparation Properties]
Weight:	
Volume:	
Dilution:	
Path Length:	
Additional Information:	

[Instrument Properties]
Instrument Type:	SolidSpec-3700 Series
Measuring Mode:	Transmittance
Slit Width:	5,0 nm
Time Constant:	1,0 sec.
Source Lamp:	Auto
Light Source Change Wavelength:	282,00 nm
Detector Unit:	Integral Sphere
Detector Change Wavelength:	870,00 nm  1650,00 nm
Grating Change Wavelength:	800,00 nm
S/R Exchange:	Normal
Detector Lock:	Auto
Slit Program:	Fixed
Beam Mode:	Double
Stair Correction:	Disable

[Attachment Properties]
Attachment:	None

[Operation]
Threshold:	0,0010000
Points:	4
InterPolate:	Disabled
Average:	Disabled

[DATA]
Wavelength	Data
285.0	44.577
286.0	45.186
287.0	46.029
288.0	46.970
289.0	47.874
290.0	48.757
291.0	49.601
292.0	50.265
293.0	50.990
294.0	51.434
295.0	52.015
296.0	52.497
297.0	53.145
298.0	53.750
299.0	54.241
300.0	54.947
301.0	55.314
302.0	55.799
303.0	55.998
304.0	56.487
305.0	56.886
306.0	57.123
307.0	57.283
308.0	57.350
309.0	57.632
310.0	57.924
311.0	58.108
312.0	58.183
313.0	58.128
314.0	58.169
315.0	57.999
316.0	58.043
317.0	57.971
318.0	58.141
319.0	57.869
320.0	57.723
321.0	57.401
322.0	57.206
323.0	56.899
324.0	56.486
325.0	56.226
326.0	56.018
327.0	55.785
328.0	55.410
329.0	54.967
330.0	54.614
331.0	54.416
332.0	54.104
333.0	53.789
334.0	53.429
335.0	53.150
336.0	52.850
337.0	52.442
338.0	52.128
339.0	51.652
340.0	51.221
341.0	50.667
342.0	50.157
343.0	49.668
344.0	49.211
345.0	48.788
346.0	48.204
347.0	47.726
348.0	47.301
349.0	46.838
350.0	46.261
351.0	45.613
352.0	45.049
353.0	44.493
354.0	43.960
355.0	43.409
356.0	42.831
357.0	42.299
358.0	41.820
359.0	41.374
360.0	40.884
361.0	40.364
362.0	39.875
363.0	39.404
364.0	38.926
365.0	38.477
366.0	38.065
367.0	37.659
368.0	37.231
369.0	36.804
370.0	36.447
371.0	36.105
372.0	35.792
373.0	35.499
374.0	35.224
375.0	35.033
376.0	34.922
377.0	34.837
378.0	34.759
379.0	34.654
380.0	34.624
381.0	34.621
382.0	34.717
383.0	34.837
384.0	35.014
385.0	35.210
386.0	35.453
387.0	35.717
388.0	35.999
389.0	36.307
390.0	36.658
391.0	36.983
392.0	37.317
393.0	37.623
394.0	38.000
395.0	38.362
396.0	38.735
397.0	39.082
398.0	39.449
399.0	39.776
400.0	40.115
401.0	40.404
402.0	40.673
403.0	40.909
404.0	41.150
405.0	41.375
406.0	41.573
407.0	41.769
408.0	41.950
409.0	42.118
410.0	42.268
411.0	42.470
412.0	42.655
413.0	42.857
414.0	43.086
415.0	43.360
416.0	43.636
417.0	43.909
418.0	44.218
419.0	44.591
420.0	44.947
421.0	45.326
422.0	45.708
423.0	46.114
424.0	46.526
425.0	46.926
426.0	47.392
427.0	47.835
428.0	48.306
429.0	48.704
430.0	49.128
431.0	49.456
432.0	49.801
433.0	50.036
434.0	50.263
435.0	50.458
436.0	50.646
437.0	50.803
438.0	50.861
439.0	50.894
440.0	50.898
441.0	50.895
442.0	50.819
443.0	50.720
444.0	50.574
445.0	50.459
446.0	50.323
447.0	50.185
448.0	50.037
449.0	49.899
450.0	49.750
451.0	49.589
452.0	49.387
453.0	49.193
454.0	49.013
455.0	48.815
456.0	48.617
457.0	48.399
458.0	48.234
459.0	48.046
460.0	47.871
461.0	47.694
462.0	47.561
463.0	47.404
464.0	47.281
465.0	47.123
466.0	47.015
467.0	46.870
468.0	46.781
469.0	46.688
470.0	46.584
471.0	46.499
472.0	46.412
473.0	46.360
474.0	46.276
475.0	46.230
476.0	46.183
477.0	46.127
478.0	46.057
479.0	46.015
480.0	46.021
481.0	46.011
482.0	46.010
483.0	46.007
484.0	45.988
485.0	46.025
486.0	46.061
487.0	46.124
488.0	46.164
489.0	46.210
490.0	46.283
491.0	46.344
492.0	46.411
493.0	46.495
494.0	46.569
495.0	46.680
496.0	46.793
497.0	46.894
498.0	46.971
499.0	47.066
500.0	47.228
501.0	47.411
502.0	47.578
503.0	47.738
504.0	47.889
505.0	48.069
506.0	48.247
507.0	48.424
508.0	48.584
509.0	48.742
510.0	48.897
511.0	49.079
512.0	49.284
513.0	49.475
514.0	49.680
515.0	49.850
516.0	50.062
517.0	50.223
518.0	50.413
519.0	50.576
520.0	50.790
521.0	50.986
522.0	51.190
523.0	51.332
524.0	51.468
525.0	51.615
526.0	51.802
527.0	51.951
528.0	52.128
529.0	52.265
530.0	52.404
531.0	52.464
532.0	52.590
533.0	52.698
534.0	52.848
535.0	52.913
536.0	53.009
537.0	53.103
538.0	53.177
539.0	53.263
540.0	53.283
541.0	53.345
542.0	53.384
543.0	53.407
544.0	53.408
545.0	53.396
546.0	53.453
547.0	53.464
548.0	53.494
549.0	53.461
550.0	53.488
551.0	53.461
552.0	53.432
553.0	53.378
554.0	53.321
555.0	53.294
556.0	53.222
557.0	53.171
558.0	53.082
559.0	53.022
560.0	52.963
561.0	52.915
562.0	52.849
563.0	52.750
564.0	52.649
565.0	52.559
566.0	52.460
567.0	52.376
568.0	52.259
569.0	52.151
570.0	52.021
571.0	51.887
572.0	51.777
573.0	51.629
574.0	51.506
575.0	51.359
576.0	51.219
577.0	51.058
578.0	50.903
579.0	50.757
580.0	50.615
581.0	50.454
582.0	50.296
583.0	50.141
584.0	49.986
585.0	49.829
586.0	49.665
587.0	49.512
588.0	49.357
589.0	49.190
590.0	49.027
591.0	48.827
592.0	48.657
593.0	48.460
594.0	48.295
595.0	48.104
596.0	47.905
597.0	47.708
598.0	47.502
599.0	47.308
600.0	47.116
601.0	46.932
602.0	46.751
603.0	46.543
604.0	46.357
605.0	46.149
606.0	45.953
607.0	45.709
608.0	45.507
609.0	45.302
610.0	45.121
611.0	44.912
612.0	44.709
613.0	44.526
614.0	44.333
615.0	44.132
616.0	43.898
617.0	43.649
618.0	43.429
619.0	43.211
620.0	43.046
621.0	42.852
622.0	42.694
623.0	42.478
624.0	42.265
625.0	42.016
626.0	41.802
627.0	41.585
628.0	41.398
629.0	41.186
630.0	40.967
631.0	40.761
632.0	40.554
633.0	40.400
634.0	40.197
635.0	39.998
636.0	39.750
637.0	39.560
638.0	39.364
639.0	39.200
640.0	39.008
641.0	38.841
642.0	38.646
643.0	38.469
644.0	38.281
645.0	38.101
646.0	37.907
647.0	37.727
648.0	37.534
649.0	37.334
650.0	37.170
651.0	37.021
652.0	36.876
653.0	36.681
654.0	36.493
655.0	36.279
656.0	36.105
657.0	35.908
658.0	35.735
659.0	35.548
660.0	35.407
661.0	35.278
662.0	35.154
663.0	35.024
664.0	34.875
665.0	34.728
666.0	34.578
667.0	34.427
668.0	34.257
669.0	34.087
670.0	33.943
671.0	33.818
672.0	33.659
673.0	33.544
674.0	33.423
675.0	33.352
676.0	33.171
677.0	33.008
678.0	32.864
679.0	32.772
680.0	32.684
681.0	32.598
682.0	32.519
683.0	32.437
684.0	32.291
685.0	32.208
686.0	32.085
687.0	32.000
688.0	31.855
689.0	31.751
690.0	31.640
691.0	31.567
692.0	31.480
693.0	31.419
694.0	31.334
695.0	31.276
696.0	31.218
697.0	31.131
698.0	31.047
699.0	30.943
700.0	30.856
701.0	30.789
702.0	30.762
703.0	30.745
704.0	30.683
705.0	30.584
706.0	30.511
707.0	30.439
708.0	30.374
709.0	30.315
710.0	30.236
711.0	30.194
712.0	30.088
713.0	30.052
714.0	29.986
715.0	29.952
716.0	29.882
717.0	29.816
718.0	29.750
719.0	29.646
720.0	29.555
721.0	29.483
722.0	29.435
723.0	29.400
724.0	29.328
725.0	29.292
726.0	29.183
727.0	29.096
728.0	29.010
729.0	28.966
730.0	28.902
731.0	28.831
732.0	28.734
733.0	28.693
734.0	28.659
735.0	28.618
736.0	28.551
737.0	28.426
738.0	28.293
739.0	28.166
740.0	28.107
741.0	28.075
742.0	28.020
743.0	27.939
744.0	27.844
745.0	27.775
746.0	27.691
747.0	27.577
748.0	27.515
749.0	27.418
750.0	27.419
751.0	27.298
752.0	27.244
753.0	27.135
754.0	27.082
755.0	27.022
756.0	26.939
757.0	26.848
758.0	26.723
759.0	26.649
760.0	26.602
761.0	26.574
762.0	26.542
763.0	26.516
764.0	26.456
765.0	26.351
766.0	26.286
767.0	26.218
768.0	26.251
769.0	26.174
770.0	26.180
771.0	26.096
772.0	26.048
773.0	26.017
774.0	25.972
775.0	25.954
776.0	25.853
777.0	25.783
778.0	25.745
779.0	25.709
780.0	25.736
781.0	25.722
782.0	25.710
783.0	25.649
784.0	25.563
785.0	25.536
786.0	25.495
787.0	25.511
788.0	25.469
789.0	25.466
790.0	25.441
791.0	25.427
792.0	25.396
793.0	25.351
794.0	25.318
795.0	25.267
796.0	25.262
797.0	25.237
798.0	25.230
799.0	25.210
800.0	25.095
801.0	24.989
802.0	24.890
803.0	24.896
804.0	24.851
805.0	24.779
806.0	24.740
807.0	24.727
808.0	24.716
809.0	24.666
810.0	24.603
811.0	24.531
812.0	24.513
813.0	24.479
814.0	24.449
815.0	24.400
816.0	24.386
817.0	24.384
818.0	24.326
819.0	24.267
820.0	24.200
821.0	24.165
822.0	24.123
823.0	24.074
824.0	24.007
825.0	23.961
826.0	23.882
827.0	23.842
828.0	23.763
829.0	23.747
830.0	23.714
831.0	23.692
832.0	23.652
833.0	23.618
834.0	23.569
835.0	23.451
836.0	23.398
837.0	23.338
838.0	23.362
839.0	23.316
840.0	23.242
841.0	23.212
842.0	23.127
843.0	23.129
844.0	23.092
845.0	23.016
846.0	22.954
847.0	22.889
848.0	22.901
849.0	22.835
850.0	22.754
851.0	22.691
852.0	22.707
853.0	22.660
854.0	22.693
855.0	22.615
856.0	22.568
857.0	22.417
858.0	22.325
859.0	22.331
860.0	22.388
861.0	22.410
862.0	22.388
863.0	22.302
864.0	22.323
865.0	22.292
866.0	22.293
867.0	22.313
868.0	22.269
869.0	22.243
870.0	22.070
871.0	21.924
872.0	22.073
873.0	22.338
874.0	22.362
875.0	22.293
876.0	22.115
877.0	22.298
878.0	22.110
879.0	22.094
880.0	21.942
881.0	22.005
882.0	22.117
883.0	22.291
884.0	22.171
885.0	21.863
886.0	21.868
887.0	21.964
888.0	22.205
889.0	22.229
890.0	22.329
891.0	22.413
892.0	22.289
893.0	22.342
894.0	22.288
895.0	22.317
896.0	22.502
897.0	22.584
898.0	22.800
899.0	22.661
900.0	22.738
901.0	22.608
902.0	22.619
903.0	22.596
904.0	22.678
905.0	22.753
906.0	22.753
907.0	22.784
908.0	22.832
909.0	22.896
910.0	22.945
911.0	22.981
912.0	23.010
913.0	23.037
914.0	23.096
915.0	23.137
916.0	23.220
917.0	23.201
918.0	23.224
919.0	23.205
920.0	23.219
921.0	23.251
922.0	23.319
923.0	23.364
924.0	23.420
925.0	23.421
926.0	23.399
927.0	23.463
928.0	23.487
929.0	23.605
930.0	23.606
931.0	23.696
932.0	23.705
933.0	23.746
934.0	23.767
935.0	23.835
936.0	23.900
937.0	23.952
938.0	24.016
939.0	24.050
940.0	24.108
941.0	24.113
942.0	24.164
943.0	24.182
944.0	24.218
945.0	24.232
946.0	24.269
947.0	24.359
948.0	24.388
949.0	24.459
950.0	24.458
951.0	24.500
952.0	24.515
953.0	24.566
954.0	24.624
955.0	24.668
956.0	24.718
957.0	24.762
958.0	24.823
959.0	24.846
960.0	24.901
961.0	24.930
962.0	24.965
963.0	24.998
964.0	25.036
965.0	25.122
966.0	25.165
967.0	25.193
968.0	25.209
969.0	25.245
970.0	25.303
971.0	25.371
972.0	25.422
973.0	25.457
974.0	25.460
975.0	25.525
976.0	25.584
977.0	25.652
978.0	25.670
979.0	25.719
980.0	25.767
981.0	25.818
982.0	25.881
983.0	25.955
984.0	26.001
985.0	26.053
986.0	26.066
987.0	26.134
988.0	26.167
989.0	26.212
990.0	26.246
991.0	26.271
992.0	26.351
993.0	26.405
994.0	26.477
995.0	26.525
996.0	26.562
997.0	26.628
998.0	26.675
999.0	26.728
1000.0	26.764
1001.0	26.798
1002.0	26.865
1003.0	26.897
1004.0	26.974
1005.0	27.029
1006.0	27.127
1007.0	27.185
1008.0	27.231
1009.0	27.280
1010.0	27.324
1011.0	27.376
1012.0	27.423
1013.0	27.479
1014.0	27.534
1015.0	27.608
1016.0	27.653
1017.0	27.710
1018.0	27.753
1019.0	27.831
1020.0	27.891
1021.0	27.928
1022.0	27.982
1023.0	28.044
1024.0	28.115
1025.0	28.169
1026.0	28.230
1027.0	28.292
1028.0	28.337
1029.0	28.397
1030.0	28.462
1031.0	28.520
1032.0	28.571
1033.0	28.629
1034.0	28.693
1035.0	28.760
1036.0	28.822
1037.0	28.886
1038.0	28.937
1039.0	29.007
1040.0	29.075
1041.0	29.166
1042.0	29.209
1043.0	29.270
1044.0	29.331
1045.0	29.390
1046.0	29.454
1047.0	29.492
1048.0	29.560
1049.0	29.612
1050.0	29.690
1051.0	29.767
1052.0	29.848
1053.0	29.891
1054.0	29.960
1055.0	30.012
1056.0	30.084
1057.0	30.143
1058.0	30.219
1059.0	30.299
1060.0	30.369
1061.0	30.432
1062.0	30.502
1063.0	30.570
1064.0	30.659
1065.0	30.733
1066.0	30.797
1067.0	30.850
1068.0	30.906
1069.0	30.975
1070.0	31.039
1071.0	31.116
1072.0	31.165
1073.0	31.240
1074.0	31.312
1075.0	31.414
1076.0	31.479
1077.0	31.557
1078.0	31.628
1079.0	31.696
1080.0	31.779
1081.0	31.845
1082.0	31.917
1083.0	31.962
1084.0	32.035
1085.0	32.099
1086.0	32.173
1087.0	32.257
1088.0	32.344
1089.0	32.409
1090.0	32.468
1091.0	32.563
1092.0	32.660
1093.0	32.730
1094.0	32.786
1095.0	32.850
1096.0	32.930
1097.0	33.025
1098.0	33.120
1099.0	33.191
1100.0	33.251
1101.0	33.300
1102.0	33.379
1103.0	33.453
1104.0	33.550
1105.0	33.604
1106.0	33.648
1107.0	33.700
1108.0	33.799
1109.0	33.894
1110.0	33.954
1111.0	34.005
1112.0	34.074
1113.0	34.161
1114.0	34.234
1115.0	34.301
1116.0	34.376
1117.0	34.441
1118.0	34.515
1119.0	34.563
1120.0	34.629
1121.0	34.672
1122.0	34.746
1123.0	34.824
1124.0	34.916
1125.0	34.969
1126.0	35.026
1127.0	35.071
1128.0	35.133
1129.0	35.200
1130.0	35.272
1131.0	35.342
1132.0	35.393
1133.0	35.447
1134.0	35.511
1135.0	35.556
1136.0	35.609
1137.0	35.673
1138.0	35.738
1139.0	35.815
1140.0	35.853
1141.0	35.930
1142.0	35.980
1143.0	36.049
1144.0	36.076
1145.0	36.114
1146.0	36.139
1147.0	36.201
1148.0	36.259
1149.0	36.321
1150.0	36.369
1151.0	36.416
1152.0	36.490
1153.0	36.554
1154.0	36.608
1155.0	36.630
1156.0	36.666
1157.0	36.720
1158.0	36.765
1159.0	36.830
1160.0	36.853
1161.0	36.912
1162.0	36.940
1163.0	36.989
1164.0	37.036
1165.0	37.081
1166.0	37.130
1167.0	37.157
1168.0	37.181
1169.0	37.211
1170.0	37.247
1171.0	37.283
1172.0	37.318
1173.0	37.363
1174.0	37.404
1175.0	37.426
1176.0	37.449
1177.0	37.480
1178.0	37.509
1179.0	37.519
1180.0	37.552
1181.0	37.580
1182.0	37.624
1183.0	37.649
1184.0	37.676
1185.0	37.695
1186.0	37.708
1187.0	37.730
1188.0	37.762
1189.0	37.788
1190.0	37.817
1191.0	37.832
1192.0	37.847
1193.0	37.855
1194.0	37.873
1195.0	37.889
1196.0	37.909
1197.0	37.918
1198.0	37.915
1199.0	37.923
1200.0	37.939
1201.0	37.958
1202.0	37.975
1203.0	37.951
1204.0	37.967
1205.0	37.978
1206.0	38.006
1207.0	37.983
1208.0	37.979
1209.0	37.986
1210.0	37.999
1211.0	37.966
1212.0	37.978
1213.0	37.972
1214.0	37.988
1215.0	37.973
1216.0	37.988
1217.0	38.011
1218.0	37.997
1219.0	37.986
1220.0	37.955
1221.0	37.946
1222.0	37.930
1223.0	37.923
1224.0	37.906
1225.0	37.897
1226.0	37.887
1227.0	37.870
1228.0	37.848
1229.0	37.839
1230.0	37.817
1231.0	37.808
1232.0	37.770
1233.0	37.769
1234.0	37.737
1235.0	37.736
1236.0	37.732
1237.0	37.717
1238.0	37.686
1239.0	37.651
1240.0	37.639
1241.0	37.629
1242.0	37.609
1243.0	37.588
1244.0	37.548
1245.0	37.511
1246.0	37.472
1247.0	37.435
1248.0	37.407
1249.0	37.366
1250.0	37.342
1251.0	37.306
1252.0	37.271
1253.0	37.249
1254.0	37.220
1255.0	37.177
1256.0	37.124
1257.0	37.078
1258.0	37.054
1259.0	37.020
1260.0	36.984
1261.0	36.954
1262.0	36.923
1263.0	36.902
1264.0	36.865
1265.0	36.838
1266.0	36.793
1267.0	36.762
1268.0	36.729
1269.0	36.707
1270.0	36.668
1271.0	36.626
1272.0	36.576
1273.0	36.543
1274.0	36.501
1275.0	36.484
1276.0	36.453
1277.0	36.431
1278.0	36.385
1279.0	36.348
1280.0	36.314
1281.0	36.261
1282.0	36.209
1283.0	36.153
1284.0	36.122
1285.0	36.077
1286.0	36.027
1287.0	35.986
1288.0	35.949
1289.0	35.916
1290.0	35.860
1291.0	35.820
1292.0	35.760
1293.0	35.725
1294.0	35.671
1295.0	35.640
1296.0	35.591
1297.0	35.554
1298.0	35.496
1299.0	35.448
1300.0	35.392
1301.0	35.359
1302.0	35.320
1303.0	35.262
1304.0	35.196
1305.0	35.142
1306.0	35.099
1307.0	35.060
1308.0	35.012
1309.0	34.989
1310.0	34.933
1311.0	34.890
1312.0	34.818
1313.0	34.764
1314.0	34.721
1315.0	34.689
1316.0	34.652
1317.0	34.591
1318.0	34.562
1319.0	34.524
1320.0	34.484
1321.0	34.431
1322.0	34.380
1323.0	34.337
1324.0	34.284
1325.0	34.258
1326.0	34.188
1327.0	34.136
1328.0	34.076
1329.0	34.030
1330.0	33.990
1331.0	33.939
1332.0	33.901
1333.0	33.843
1334.0	33.774
1335.0	33.736
1336.0	33.674
1337.0	33.644
1338.0	33.600
1339.0	33.563
1340.0	33.517
1341.0	33.468
1342.0	33.417
1343.0	33.363
1344.0	33.282
1345.0	33.232
1346.0	33.169
1347.0	33.132
1348.0	33.078
1349.0	33.018
1350.0	32.980
1351.0	32.929
1352.0	32.909
1353.0	32.835
1354.0	32.789
1355.0	32.725
1356.0	32.688
1357.0	32.621
1358.0	32.562
1359.0	32.517
1360.0	32.481
1361.0	32.423
1362.0	32.380
1363.0	32.318
1364.0	32.280
1365.0	32.239
1366.0	32.203
1367.0	32.134
1368.0	32.096
1369.0	32.049
1370.0	32.025
1371.0	31.937
1372.0	31.898
1373.0	31.851
1374.0	31.805
1375.0	31.732
1376.0	31.696
1377.0	31.645
1378.0	31.617
1379.0	31.544
1380.0	31.483
1381.0	31.390
1382.0	31.368
1383.0	31.331
1384.0	31.307
1385.0	31.243
1386.0	31.203
1387.0	31.153
1388.0	31.065
1389.0	30.982
1390.0	30.912
1391.0	30.881
1392.0	30.839
1393.0	30.796
1394.0	30.750
1395.0	30.701
1396.0	30.654
1397.0	30.598
1398.0	30.557
1399.0	30.522
1400.0	30.492
1401.0	30.467
1402.0	30.416
1403.0	30.343
1404.0	30.258
1405.0	30.209
1406.0	30.168
1407.0	30.149
1408.0	30.126
1409.0	30.100
1410.0	30.047
1411.0	30.002
1412.0	29.962
1413.0	29.931
1414.0	29.905
1415.0	29.867
1416.0	29.807
1417.0	29.756
1418.0	29.712
1419.0	29.700
1420.0	29.660
1421.0	29.636
1422.0	29.582
1423.0	29.539
1424.0	29.504
1425.0	29.494
1426.0	29.451
1427.0	29.403
1428.0	29.358
1429.0	29.350
1430.0	29.294
1431.0	29.245
1432.0	29.194
1433.0	29.197
1434.0	29.189
1435.0	29.158
1436.0	29.098
1437.0	29.018
1438.0	28.984
1439.0	28.950
1440.0	28.946
1441.0	28.887
1442.0	28.852
1443.0	28.777
1444.0	28.731
1445.0	28.685
1446.0	28.675
1447.0	28.656
1448.0	28.615
1449.0	28.582
1450.0	28.548
1451.0	28.540
1452.0	28.513
1453.0	28.456
1454.0	28.378
1455.0	28.354
1456.0	28.347
1457.0	28.336
1458.0	28.270
1459.0	28.212
1460.0	28.188
1461.0	28.140
1462.0	28.116
1463.0	28.052
1464.0	28.040
1465.0	28.026
1466.0	27.995
1467.0	27.969
1468.0	27.899
1469.0	27.885
1470.0	27.827
1471.0	27.793
1472.0	27.758
1473.0	27.756
1474.0	27.717
1475.0	27.668
1476.0	27.624
1477.0	27.617
1478.0	27.597
1479.0	27.567
1480.0	27.539
1481.0	27.520
1482.0	27.500
1483.0	27.470
1484.0	27.424
1485.0	27.358
1486.0	27.335
1487.0	27.334
1488.0	27.325
1489.0	27.285
1490.0	27.212
1491.0	27.164
1492.0	27.131
1493.0	27.101
1494.0	27.081
1495.0	27.041
1496.0	26.998
1497.0	26.951
1498.0	26.910
1499.0	26.879
1500.0	26.879
1501.0	26.852
1502.0	26.834
1503.0	26.739
1504.0	26.738
1505.0	26.684
1506.0	26.715
1507.0	26.627
1508.0	26.609
1509.0	26.549
1510.0	26.542
1511.0	26.537
1512.0	26.514
1513.0	26.492
1514.0	26.452
1515.0	26.427
1516.0	26.396
1517.0	26.374
1518.0	26.331
1519.0	26.316
1520.0	26.273
1521.0	26.237
1522.0	26.205
1523.0	26.185
1524.0	26.169
1525.0	26.134
1526.0	26.102
1527.0	26.070
1528.0	26.020
1529.0	26.012
1530.0	25.999
1531.0	26.009
1532.0	25.964
1533.0	25.922
1534.0	25.872
1535.0	25.815
1536.0	25.795
1537.0	25.766
1538.0	25.747
1539.0	25.735
1540.0	25.714
1541.0	25.694
1542.0	25.641
1543.0	25.596
1544.0	25.576
1545.0	25.557
1546.0	25.559
1547.0	25.533
1548.0	25.492
1549.0	25.467
1550.0	25.455
1551.0	25.428
1552.0	25.390
1553.0	25.344
1554.0	25.340
1555.0	25.317
1556.0	25.282
1557.0	25.259
1558.0	25.229
1559.0	25.230
1560.0	25.189
1561.0	25.195
1562.0	25.146
1563.0	25.130
1564.0	25.073
1565.0	25.067
1566.0	25.020
1567.0	25.002
1568.0	24.955
1569.0	24.953
1570.0	24.909
1571.0	24.915
1572.0	24.895
1573.0	24.887
1574.0	24.870
1575.0	24.824
1576.0	24.820
1577.0	24.775
1578.0	24.788
1579.0	24.741
1580.0	24.700
1581.0	24.662
1582.0	24.667
1583.0	24.660
1584.0	24.614
1585.0	24.581
1586.0	24.524
1587.0	24.516
1588.0	24.493
1589.0	24.489
1590.0	24.488
1591.0	24.460
1592.0	24.436
1593.0	24.401
1594.0	24.379
1595.0	24.364
1596.0	24.348
1597.0	24.297
1598.0	24.277
1599.0	24.227
1600.0	24.223
1601.0	24.199
1602.0	24.193
1603.0	24.158
1604.0	24.118
1605.0	24.100
1606.0	24.065
1607.0	24.094
1608.0	24.040
1609.0	24.042
1610.0	23.998
1611.0	24.005
1612.0	23.962
1613.0	23.954
1614.0	23.927
1615.0	23.917
1616.0	23.880
1617.0	23.867
1618.0	23.842
1619.0	23.847
1620.0	23.778
1621.0	23.766
1622.0	23.697
1623.0	23.724
1624.0	23.700
1625.0	23.748
1626.0	23.721
1627.0	23.702
1628.0	23.633
1629.0	23.590
1630.0	23.593
1631.0	23.540
1632.0	23.560
1633.0	23.501
1634.0	23.518
1635.0	23.478
1636.0	23.494
1637.0	23.512
1638.0	23.466
1639.0	23.447
1640.0	23.414
1641.0	23.373
1642.0	23.327
1643.0	23.283
1644.0	23.308
1645.0	23.331
1646.0	23.322
1647.0	23.280
1648.0	23.207
1649.0	23.179
1650.0	22.962
1651.0	22.999
1652.0	22.824
1653.0	23.472
1654.0	23.733
1655.0	23.753
1656.0	23.072
1657.0	22.863
1658.0	23.015
1659.0	23.858
1660.0	23.700
1661.0	23.742
1662.0	23.160
1663.0	22.964
1664.0	22.801
1665.0	22.330
1666.0	22.474
1667.0	22.566
1668.0	22.775
1669.0	22.861
1670.0	22.895
1671.0	23.061
1672.0	22.998
1673.0	22.773
1674.0	22.733
1675.0	23.115
1676.0	23.073
1677.0	23.212
1678.0	23.361
1679.0	23.818
1680.0	23.787
1681.0	23.042
1682.0	22.680
1683.0	22.590
1684.0	22.795
1685.0	22.783
1686.0	22.886
1687.0	22.946
1688.0	23.130
1689.0	23.098
1690.0	22.746
1691.0	22.575
1692.0	22.644
1693.0	23.278
1694.0	22.999
1695.0	22.886
1696.0	22.504
1697.0	22.579
1698.0	22.444
1699.0	22.620
1700.0	22.407
1701.0	22.144
1702.0	21.668
1703.0	22.075
1704.0	22.299
1705.0	22.652
1706.0	22.782
1707.0	23.024
1708.0	22.575
1709.0	22.416
1710.0	22.284
1711.0	22.411
1712.0	22.658
1713.0	22.570
1714.0	22.696
1715.0	22.247
1716.0	21.572
1717.0	21.227
1718.0	20.952
1719.0	21.484
1720.0	21.837
1721.0	22.475
1722.0	23.015
1723.0	22.845
1724.0	22.837
1725.0	22.600
1726.0	22.651
1727.0	22.171
1728.0	21.882
1729.0	22.175
1730.0	22.375
1731.0	22.394
1732.0	22.042
1733.0	22.202
1734.0	22.109
1735.0	22.401
1736.0	22.304
1737.0	21.999
1738.0	21.793
1739.0	21.459
1740.0	22.186
1741.0	22.563
1742.0	22.657
1743.0	22.028
1744.0	21.581
1745.0	21.586
1746.0	21.839
1747.0	22.263
1748.0	22.607
1749.0	22.773
1750.0	22.314
1751.0	22.142
1752.0	22.202
1753.0	22.276
1754.0	22.209
1755.0	21.837
1756.0	22.227
1757.0	22.434
1758.0	22.185
1759.0	21.466
1760.0	21.136
1761.0	21.630
1762.0	21.973
1763.0	21.672
1764.0	20.988
1765.0	20.912
1766.0	21.271
1767.0	21.767
1768.0	21.651
1769.0	21.581
1770.0	21.220
1771.0	21.261
1772.0	21.358
1773.0	22.565
1774.0	21.770
1775.0	21.431
1776.0	20.493
1777.0	21.711
1778.0	21.858
1779.0	21.535
1780.0	20.883
1781.0	21.223
1782.0	21.454
1783.0	21.608
1784.0	20.943
1785.0	21.152
1786.0	21.404
1787.0	22.011
1788.0	21.589
1789.0	21.294
1790.0	21.066
1791.0	21.514
1792.0	21.557
1793.0	21.548
1794.0	20.835
1795.0	20.925
1796.0	21.039
1797.0	21.157
1798.0	20.741
1799.0	20.337
1800.0	20.849
1801.0	21.249
1802.0	20.903
1803.0	20.824
1804.0	21.285
1805.0	21.612
1806.0	21.633
1807.0	21.022
1808.0	22.028
1809.0	22.333
1810.0	22.856
1811.0	21.745
1812.0	21.477
1813.0	21.141
1814.0	21.289
1815.0	20.737
1816.0	20.196
1817.0	20.290
1818.0	20.861
1819.0	22.076
1820.0	22.415
1821.0	22.422
1822.0	21.646
1823.0	21.457
1824.0	21.373
1825.0	21.263
1826.0	21.330
1827.0	21.221
1828.0	20.944
1829.0	21.229
1830.0	21.546
1831.0	21.399
1832.0	21.144
1833.0	20.767
1834.0	20.054
1835.0	19.761
1836.0	20.400
1837.0	21.805
1838.0	22.498
1839.0	21.558
1840.0	21.712
1841.0	21.476
1842.0	21.413
1843.0	20.753
1844.0	20.681
1845.0	20.512
1846.0	20.509
1847.0	20.117
1848.0	21.144
1849.0	21.575
1850.0	21.485
1851.0	21.517
1852.0	21.164
1853.0	21.529
1854.0	21.219
1855.0	21.505
1856.0	21.062
1857.0	21.176
1858.0	20.655
1859.0	20.497
1860.0	20.506
1861.0	20.587
1862.0	21.620
1863.0	21.186
1864.0	22.061
1865.0	20.489
1866.0	20.855
1867.0	20.466
1868.0	20.884
1869.0	20.598
1870.0	19.766
1871.0	20.308
1872.0	20.270
1873.0	20.898
1874.0	20.779
1875.0	20.057
1876.0	20.036
1877.0	20.535
1878.0	21.677
1879.0	21.556
1880.0	20.973
1881.0	20.586
1882.0	20.951
1883.0	20.985
1884.0	21.520
1885.0	21.578
1886.0	21.577
1887.0	20.513
1888.0	20.821
1889.0	20.942
1890.0	21.708
1891.0	20.551
1892.0	21.061
1893.0	21.218
1894.0	21.247
1895.0	20.231
1896.0	19.746
1897.0	19.775
1898.0	20.693
1899.0	21.241
1900.0	22.068
1901.0	22.355
1902.0	21.452
1903.0	21.618
1904.0	20.579
1905.0	22.199
1906.0	21.872
1907.0	22.711
1908.0	21.971
1909.0	21.905
1910.0	21.306
1911.0	19.752
1912.0	19.036
1913.0	19.158
1914.0	20.484
1915.0	21.412
1916.0	22.275
1917.0	22.274
1918.0	21.567
1919.0	20.853
1920.0	21.278
1921.0	21.158
1922.0	21.183
1923.0	19.947
1924.0	20.830
1925.0	19.633
1926.0	19.468
1927.0	19.338
1928.0	20.064
1929.0	20.003
1930.0	20.043
1931.0	19.819
1932.0	19.383
1933.0	19.295
1934.0	18.592
1935.0	18.995
1936.0	18.264
1937.0	20.561
1938.0	21.068
1939.0	21.170
1940.0	20.943
1941.0	20.898
1942.0	21.546
1943.0	21.265
1944.0	20.974
1945.0	20.029
1946.0	19.682
1947.0	21.056
1948.0	21.649
1949.0	21.278
1950.0	21.005
1951.0	20.433
1952.0	20.673
1953.0	20.388
1954.0	21.829
1955.0	21.101
1956.0	20.725
1957.0	19.360
1958.0	19.839
1959.0	19.870
1960.0	19.599
1961.0	19.678
1962.0	20.611
1963.0	22.373
1964.0	22.458
1965.0	21.268
1966.0	21.181
1967.0	20.182
1968.0	20.135
1969.0	18.662
1970.0	19.004
1971.0	17.876
1972.0	17.859
1973.0	18.266
1974.0	19.489
1975.0	19.437
1976.0	19.903
1977.0	20.217
1978.0	20.107
1979.0	20.154
1980.0	21.250
1981.0	21.811
1982.0	20.905
1983.0	18.863
1984.0	18.762
1985.0	18.720
1986.0	19.267
1987.0	18.674
1988.0	19.029
1989.0	19.358
1990.0	20.974
1991.0	21.967
1992.0	21.938
1993.0	20.273
1994.0	19.636
1995.0	19.247
1996.0	20.587
1997.0	19.768
1998.0	19.125
1999.0	18.005
2000.0	17.911
