[SUMMARY]
Software Information
Software Name:	UVProbe
Version:	2.43
Mode:	Normal Mode

Data Information
Data is:	Original
Analyst:	
Date/Time:	06/03/2023 13:04:39
Comments:	

Instrument Information
Instrument Name:	SolidSpec3700
Instrument Type:	SolidSpec-3700 Series
Model (S/N):	SolidSpec3700 ( A11085100264CZ )

[METHOD]
[Measurement Properties]
Wavelength Range (nm.):	285,00 to 2000,00
Scan Speed:	Medium
Sampling Interval:	1,0
Auto Sampling Interval:	Disabled
Scan Mode:	Single

[Sample Preparation Properties]
Weight:	
Volume:	
Dilution:	
Path Length:	
Additional Information:	

[Instrument Properties]
Instrument Type:	SolidSpec-3700 Series
Measuring Mode:	Transmittance
Slit Width:	5,0 nm
Time Constant:	1,0 sec.
Source Lamp:	Auto
Light Source Change Wavelength:	282,00 nm
Detector Unit:	Integral Sphere
Detector Change Wavelength:	870,00 nm  1650,00 nm
Grating Change Wavelength:	800,00 nm
S/R Exchange:	Normal
Detector Lock:	Auto
Slit Program:	Fixed
Beam Mode:	Double
Stair Correction:	Disable

[Attachment Properties]
Attachment:	None

[Operation]
Threshold:	0,0010000
Points:	4
InterPolate:	Disabled
Average:	Disabled

[DATA]
Wavelength	Data
285.0	35.477
286.0	35.900
287.0	36.680
288.0	37.373
289.0	38.270
290.0	39.153
291.0	40.228
292.0	41.058
293.0	41.739
294.0	42.195
295.0	42.819
296.0	43.397
297.0	44.004
298.0	44.582
299.0	45.180
300.0	45.810
301.0	46.119
302.0	46.402
303.0	46.495
304.0	46.911
305.0	47.113
306.0	47.467
307.0	47.528
308.0	47.760
309.0	47.828
310.0	48.087
311.0	48.193
312.0	48.208
313.0	48.217
314.0	48.164
315.0	48.240
316.0	48.246
317.0	48.301
318.0	48.367
319.0	48.290
320.0	48.241
321.0	48.140
322.0	48.076
323.0	48.118
324.0	48.150
325.0	48.225
326.0	48.366
327.0	48.517
328.0	48.633
329.0	48.651
330.0	48.765
331.0	49.017
332.0	49.277
333.0	49.452
334.0	49.739
335.0	49.987
336.0	50.365
337.0	50.722
338.0	51.208
339.0	51.558
340.0	51.906
341.0	52.245
342.0	52.616
343.0	53.001
344.0	53.384
345.0	53.850
346.0	54.120
347.0	54.477
348.0	54.858
349.0	55.197
350.0	55.448
351.0	55.614
352.0	55.829
353.0	56.035
354.0	56.165
355.0	56.288
356.0	56.292
357.0	56.321
358.0	56.383
359.0	56.370
360.0	56.417
361.0	56.369
362.0	56.362
363.0	56.230
364.0	56.085
365.0	55.981
366.0	55.926
367.0	55.912
368.0	55.828
369.0	55.673
370.0	55.498
371.0	55.284
372.0	55.073
373.0	54.880
374.0	54.735
375.0	54.612
376.0	54.408
377.0	54.222
378.0	54.019
379.0	53.822
380.0	53.566
381.0	53.293
382.0	53.041
383.0	52.781
384.0	52.574
385.0	52.354
386.0	52.146
387.0	51.875
388.0	51.602
389.0	51.363
390.0	51.090
391.0	50.815
392.0	50.533
393.0	50.267
394.0	49.992
395.0	49.661
396.0	49.350
397.0	49.032
398.0	48.780
399.0	48.481
400.0	48.218
401.0	47.913
402.0	47.602
403.0	47.293
404.0	46.952
405.0	46.655
406.0	46.284
407.0	45.949
408.0	45.608
409.0	45.278
410.0	44.956
411.0	44.624
412.0	44.313
413.0	43.994
414.0	43.667
415.0	43.314
416.0	42.950
417.0	42.589
418.0	42.251
419.0	41.947
420.0	41.607
421.0	41.289
422.0	40.955
423.0	40.642
424.0	40.281
425.0	39.911
426.0	39.547
427.0	39.208
428.0	38.866
429.0	38.535
430.0	38.190
431.0	37.792
432.0	37.379
433.0	36.994
434.0	36.625
435.0	36.277
436.0	35.912
437.0	35.552
438.0	35.150
439.0	34.785
440.0	34.436
441.0	34.099
442.0	33.717
443.0	33.342
444.0	32.954
445.0	32.561
446.0	32.152
447.0	31.768
448.0	31.395
449.0	31.036
450.0	30.666
451.0	30.274
452.0	29.880
453.0	29.484
454.0	29.089
455.0	28.668
456.0	28.233
457.0	27.816
458.0	27.414
459.0	27.039
460.0	26.648
461.0	26.242
462.0	25.854
463.0	25.455
464.0	25.094
465.0	24.695
466.0	24.320
467.0	23.933
468.0	23.562
469.0	23.211
470.0	22.835
471.0	22.463
472.0	22.061
473.0	21.696
474.0	21.309
475.0	20.926
476.0	20.527
477.0	20.139
478.0	19.746
479.0	19.350
480.0	18.961
481.0	18.577
482.0	18.199
483.0	17.830
484.0	17.464
485.0	17.118
486.0	16.764
487.0	16.410
488.0	16.068
489.0	15.749
490.0	15.438
491.0	15.122
492.0	14.794
493.0	14.462
494.0	14.128
495.0	13.806
496.0	13.509
497.0	13.213
498.0	12.909
499.0	12.608
500.0	12.307
501.0	12.019
502.0	11.722
503.0	11.431
504.0	11.148
505.0	10.883
506.0	10.632
507.0	10.380
508.0	10.127
509.0	9.880
510.0	9.635
511.0	9.402
512.0	9.183
513.0	8.972
514.0	8.769
515.0	8.557
516.0	8.362
517.0	8.169
518.0	7.982
519.0	7.802
520.0	7.622
521.0	7.450
522.0	7.278
523.0	7.110
524.0	6.941
525.0	6.769
526.0	6.607
527.0	6.455
528.0	6.312
529.0	6.160
530.0	6.012
531.0	5.860
532.0	5.722
533.0	5.587
534.0	5.468
535.0	5.343
536.0	5.219
537.0	5.100
538.0	4.983
539.0	4.875
540.0	4.766
541.0	4.666
542.0	4.562
543.0	4.456
544.0	4.357
545.0	4.261
546.0	4.180
547.0	4.094
548.0	4.014
549.0	3.930
550.0	3.851
551.0	3.774
552.0	3.699
553.0	3.625
554.0	3.560
555.0	3.500
556.0	3.440
557.0	3.381
558.0	3.324
559.0	3.269
560.0	3.219
561.0	3.168
562.0	3.120
563.0	3.079
564.0	3.038
565.0	2.999
566.0	2.953
567.0	2.910
568.0	2.869
569.0	2.833
570.0	2.799
571.0	2.763
572.0	2.729
573.0	2.696
574.0	2.660
575.0	2.620
576.0	2.581
577.0	2.546
578.0	2.512
579.0	2.475
580.0	2.441
581.0	2.407
582.0	2.376
583.0	2.346
584.0	2.314
585.0	2.280
586.0	2.249
587.0	2.223
588.0	2.195
589.0	2.162
590.0	2.131
591.0	2.101
592.0	2.077
593.0	2.050
594.0	2.023
595.0	1.995
596.0	1.971
597.0	1.947
598.0	1.924
599.0	1.902
600.0	1.881
601.0	1.862
602.0	1.843
603.0	1.830
604.0	1.821
605.0	1.812
606.0	1.805
607.0	1.796
608.0	1.793
609.0	1.790
610.0	1.789
611.0	1.790
612.0	1.792
613.0	1.791
614.0	1.794
615.0	1.800
616.0	1.815
617.0	1.826
618.0	1.842
619.0	1.852
620.0	1.868
621.0	1.882
622.0	1.908
623.0	1.929
624.0	1.954
625.0	1.971
626.0	1.996
627.0	2.021
628.0	2.049
629.0	2.071
630.0	2.095
631.0	2.124
632.0	2.152
633.0	2.174
634.0	2.189
635.0	2.207
636.0	2.221
637.0	2.233
638.0	2.247
639.0	2.258
640.0	2.270
641.0	2.279
642.0	2.287
643.0	2.285
644.0	2.284
645.0	2.283
646.0	2.281
647.0	2.272
648.0	2.259
649.0	2.244
650.0	2.233
651.0	2.220
652.0	2.208
653.0	2.186
654.0	2.168
655.0	2.149
656.0	2.138
657.0	2.125
658.0	2.116
659.0	2.103
660.0	2.093
661.0	2.081
662.0	2.073
663.0	2.067
664.0	2.068
665.0	2.066
666.0	2.065
667.0	2.069
668.0	2.076
669.0	2.091
670.0	2.111
671.0	2.140
672.0	2.173
673.0	2.204
674.0	2.248
675.0	2.303
676.0	2.367
677.0	2.435
678.0	2.511
679.0	2.589
680.0	2.679
681.0	2.769
682.0	2.885
683.0	3.009
684.0	3.159
685.0	3.313
686.0	3.490
687.0	3.684
688.0	3.911
689.0	4.148
690.0	4.410
691.0	4.700
692.0	5.027
693.0	5.378
694.0	5.774
695.0	6.203
696.0	6.668
697.0	7.140
698.0	7.662
699.0	8.228
700.0	8.832
701.0	9.469
702.0	10.143
703.0	10.879
704.0	11.627
705.0	12.399
706.0	13.190
707.0	14.038
708.0	14.879
709.0	15.779
710.0	16.678
711.0	17.648
712.0	18.571
713.0	19.477
714.0	20.428
715.0	21.382
716.0	22.352
717.0	23.337
718.0	24.294
719.0	25.248
720.0	26.106
721.0	27.022
722.0	27.960
723.0	28.839
724.0	29.707
725.0	30.462
726.0	31.225
727.0	31.863
728.0	32.514
729.0	33.185
730.0	33.847
731.0	34.557
732.0	35.142
733.0	35.756
734.0	36.278
735.0	36.839
736.0	37.336
737.0	37.827
738.0	38.330
739.0	38.840
740.0	39.315
741.0	39.712
742.0	40.088
743.0	40.557
744.0	40.986
745.0	41.447
746.0	41.756
747.0	42.117
748.0	42.524
749.0	42.840
750.0	43.167
751.0	43.378
752.0	43.727
753.0	44.041
754.0	44.323
755.0	44.587
756.0	44.836
757.0	45.123
758.0	45.427
759.0	45.726
760.0	45.986
761.0	46.221
762.0	46.498
763.0	46.825
764.0	47.171
765.0	47.412
766.0	47.623
767.0	47.808
768.0	48.062
769.0	48.255
770.0	48.472
771.0	48.687
772.0	48.845
773.0	49.087
774.0	49.260
775.0	49.510
776.0	49.629
777.0	49.784
778.0	49.972
779.0	50.133
780.0	50.464
781.0	50.667
782.0	50.938
783.0	50.978
784.0	51.175
785.0	51.279
786.0	51.446
787.0	51.571
788.0	51.787
789.0	51.921
790.0	52.025
791.0	52.230
792.0	52.466
793.0	52.654
794.0	52.707
795.0	52.881
796.0	53.146
797.0	53.329
798.0	53.337
799.0	53.399
800.0	53.688
801.0	54.088
802.0	54.483
803.0	54.652
804.0	54.783
805.0	54.830
806.0	54.939
807.0	55.102
808.0	55.317
809.0	55.470
810.0	55.575
811.0	55.670
812.0	55.857
813.0	55.977
814.0	56.103
815.0	56.174
816.0	56.333
817.0	56.410
818.0	56.507
819.0	56.559
820.0	56.692
821.0	56.770
822.0	56.903
823.0	57.014
824.0	57.108
825.0	57.262
826.0	57.385
827.0	57.611
828.0	57.702
829.0	57.830
830.0	57.902
831.0	58.036
832.0	58.152
833.0	58.216
834.0	58.301
835.0	58.355
836.0	58.488
837.0	58.607
838.0	58.735
839.0	58.929
840.0	58.982
841.0	59.105
842.0	59.209
843.0	59.378
844.0	59.444
845.0	59.398
846.0	59.381
847.0	59.475
848.0	59.674
849.0	59.831
850.0	59.885
851.0	59.911
852.0	59.976
853.0	60.083
854.0	60.186
855.0	60.298
856.0	60.404
857.0	60.520
858.0	60.743
859.0	60.869
860.0	60.811
861.0	60.742
862.0	60.707
863.0	61.007
864.0	61.214
865.0	61.329
866.0	61.689
867.0	61.769
868.0	61.943
869.0	61.863
870.0	61.936
871.0	61.872
872.0	61.866
873.0	62.184
874.0	62.417
875.0	62.575
876.0	62.507
877.0	62.522
878.0	62.515
879.0	62.592
880.0	63.000
881.0	63.047
882.0	63.003
883.0	63.100
884.0	63.163
885.0	63.213
886.0	63.016
887.0	63.124
888.0	63.364
889.0	63.524
890.0	63.732
891.0	63.956
892.0	64.064
893.0	63.917
894.0	63.652
895.0	63.390
896.0	63.445
897.0	63.610
898.0	64.143
899.0	64.442
900.0	64.514
901.0	64.275
902.0	64.090
903.0	64.108
904.0	64.393
905.0	64.493
906.0	64.671
907.0	64.507
908.0	64.659
909.0	64.790
910.0	65.046
911.0	65.147
912.0	65.041
913.0	65.078
914.0	65.211
915.0	65.367
916.0	65.374
917.0	65.333
918.0	65.349
919.0	65.440
920.0	65.535
921.0	65.612
922.0	65.601
923.0	65.713
924.0	65.728
925.0	65.931
926.0	65.898
927.0	66.061
928.0	66.078
929.0	66.239
930.0	66.241
931.0	66.352
932.0	66.374
933.0	66.506
934.0	66.557
935.0	66.595
936.0	66.551
937.0	66.542
938.0	66.591
939.0	66.704
940.0	66.712
941.0	66.825
942.0	66.874
943.0	67.047
944.0	67.077
945.0	67.215
946.0	67.231
947.0	67.302
948.0	67.303
949.0	67.336
950.0	67.313
951.0	67.360
952.0	67.432
953.0	67.576
954.0	67.720
955.0	67.810
956.0	67.920
957.0	67.947
958.0	68.053
959.0	68.081
960.0	68.132
961.0	68.146
962.0	68.131
963.0	68.214
964.0	68.311
965.0	68.447
966.0	68.524
967.0	68.566
968.0	68.642
969.0	68.690
970.0	68.739
971.0	68.754
972.0	68.809
973.0	68.885
974.0	69.026
975.0	69.049
976.0	69.128
977.0	69.149
978.0	69.256
979.0	69.285
980.0	69.301
981.0	69.346
982.0	69.422
983.0	69.498
984.0	69.557
985.0	69.627
986.0	69.678
987.0	69.744
988.0	69.796
989.0	69.891
990.0	69.914
991.0	69.950
992.0	70.022
993.0	70.082
994.0	70.148
995.0	70.157
996.0	70.255
997.0	70.324
998.0	70.409
999.0	70.457
1000.0	70.448
1001.0	70.484
1002.0	70.556
1003.0	70.669
1004.0	70.737
1005.0	70.794
1006.0	70.866
1007.0	70.941
1008.0	70.932
1009.0	70.964
1010.0	71.011
1011.0	71.085
1012.0	71.142
1013.0	71.185
1014.0	71.222
1015.0	71.324
1016.0	71.364
1017.0	71.460
1018.0	71.489
1019.0	71.595
1020.0	71.635
1021.0	71.675
1022.0	71.678
1023.0	71.724
1024.0	71.788
1025.0	71.877
1026.0	71.940
1027.0	72.005
1028.0	72.027
1029.0	72.076
1030.0	72.112
1031.0	72.188
1032.0	72.224
1033.0	72.275
1034.0	72.340
1035.0	72.395
1036.0	72.429
1037.0	72.477
1038.0	72.557
1039.0	72.612
1040.0	72.618
1041.0	72.663
1042.0	72.720
1043.0	72.797
1044.0	72.844
1045.0	72.877
1046.0	72.912
1047.0	72.970
1048.0	73.041
1049.0	73.112
1050.0	73.154
1051.0	73.220
1052.0	73.250
1053.0	73.270
1054.0	73.303
1055.0	73.359
1056.0	73.439
1057.0	73.473
1058.0	73.553
1059.0	73.606
1060.0	73.676
1061.0	73.694
1062.0	73.737
1063.0	73.792
1064.0	73.837
1065.0	73.873
1066.0	73.931
1067.0	73.998
1068.0	74.076
1069.0	74.103
1070.0	74.139
1071.0	74.173
1072.0	74.198
1073.0	74.216
1074.0	74.247
1075.0	74.286
1076.0	74.358
1077.0	74.427
1078.0	74.495
1079.0	74.568
1080.0	74.618
1081.0	74.663
1082.0	74.679
1083.0	74.719
1084.0	74.787
1085.0	74.828
1086.0	74.855
1087.0	74.897
1088.0	74.959
1089.0	75.012
1090.0	75.033
1091.0	75.090
1092.0	75.176
1093.0	75.258
1094.0	75.292
1095.0	75.307
1096.0	75.350
1097.0	75.405
1098.0	75.458
1099.0	75.481
1100.0	75.516
1101.0	75.566
1102.0	75.642
1103.0	75.720
1104.0	75.794
1105.0	75.824
1106.0	75.835
1107.0	75.873
1108.0	75.910
1109.0	75.988
1110.0	76.020
1111.0	76.074
1112.0	76.116
1113.0	76.166
1114.0	76.228
1115.0	76.272
1116.0	76.306
1117.0	76.363
1118.0	76.402
1119.0	76.432
1120.0	76.451
1121.0	76.482
1122.0	76.531
1123.0	76.576
1124.0	76.639
1125.0	76.698
1126.0	76.715
1127.0	76.758
1128.0	76.805
1129.0	76.844
1130.0	76.881
1131.0	76.896
1132.0	76.940
1133.0	76.956
1134.0	77.014
1135.0	77.068
1136.0	77.121
1137.0	77.135
1138.0	77.173
1139.0	77.213
1140.0	77.255
1141.0	77.291
1142.0	77.330
1143.0	77.376
1144.0	77.425
1145.0	77.428
1146.0	77.473
1147.0	77.457
1148.0	77.497
1149.0	77.521
1150.0	77.592
1151.0	77.639
1152.0	77.682
1153.0	77.736
1154.0	77.779
1155.0	77.791
1156.0	77.833
1157.0	77.874
1158.0	77.922
1159.0	77.949
1160.0	77.978
1161.0	78.016
1162.0	78.053
1163.0	78.061
1164.0	78.107
1165.0	78.120
1166.0	78.172
1167.0	78.170
1168.0	78.186
1169.0	78.219
1170.0	78.255
1171.0	78.293
1172.0	78.330
1173.0	78.371
1174.0	78.411
1175.0	78.419
1176.0	78.417
1177.0	78.450
1178.0	78.461
1179.0	78.504
1180.0	78.534
1181.0	78.545
1182.0	78.555
1183.0	78.555
1184.0	78.599
1185.0	78.614
1186.0	78.641
1187.0	78.657
1188.0	78.699
1189.0	78.729
1190.0	78.763
1191.0	78.804
1192.0	78.805
1193.0	78.845
1194.0	78.843
1195.0	78.868
1196.0	78.859
1197.0	78.905
1198.0	78.905
1199.0	78.922
1200.0	78.936
1201.0	78.988
1202.0	79.029
1203.0	79.034
1204.0	79.055
1205.0	79.076
1206.0	79.099
1207.0	79.083
1208.0	79.090
1209.0	79.104
1210.0	79.121
1211.0	79.118
1212.0	79.150
1213.0	79.157
1214.0	79.186
1215.0	79.170
1216.0	79.202
1217.0	79.217
1218.0	79.235
1219.0	79.247
1220.0	79.264
1221.0	79.281
1222.0	79.299
1223.0	79.298
1224.0	79.295
1225.0	79.297
1226.0	79.301
1227.0	79.309
1228.0	79.348
1229.0	79.406
1230.0	79.418
1231.0	79.386
1232.0	79.341
1233.0	79.367
1234.0	79.389
1235.0	79.433
1236.0	79.441
1237.0	79.422
1238.0	79.411
1239.0	79.409
1240.0	79.434
1241.0	79.451
1242.0	79.473
1243.0	79.480
1244.0	79.459
1245.0	79.458
1246.0	79.459
1247.0	79.459
1248.0	79.453
1249.0	79.463
1250.0	79.482
1251.0	79.464
1252.0	79.450
1253.0	79.454
1254.0	79.460
1255.0	79.473
1256.0	79.460
1257.0	79.492
1258.0	79.501
1259.0	79.516
1260.0	79.497
1261.0	79.492
1262.0	79.496
1263.0	79.488
1264.0	79.507
1265.0	79.526
1266.0	79.527
1267.0	79.501
1268.0	79.472
1269.0	79.485
1270.0	79.494
1271.0	79.475
1272.0	79.472
1273.0	79.499
1274.0	79.551
1275.0	79.564
1276.0	79.514
1277.0	79.525
1278.0	79.509
1279.0	79.519
1280.0	79.470
1281.0	79.451
1282.0	79.463
1283.0	79.475
1284.0	79.471
1285.0	79.464
1286.0	79.445
1287.0	79.434
1288.0	79.452
1289.0	79.430
1290.0	79.436
1291.0	79.384
1292.0	79.403
1293.0	79.411
1294.0	79.434
1295.0	79.430
1296.0	79.417
1297.0	79.418
1298.0	79.395
1299.0	79.379
1300.0	79.375
1301.0	79.388
1302.0	79.404
1303.0	79.371
1304.0	79.331
1305.0	79.296
1306.0	79.250
1307.0	79.259
1308.0	79.255
1309.0	79.276
1310.0	79.257
1311.0	79.262
1312.0	79.270
1313.0	79.260
1314.0	79.226
1315.0	79.201
1316.0	79.167
1317.0	79.166
1318.0	79.155
1319.0	79.180
1320.0	79.194
1321.0	79.209
1322.0	79.207
1323.0	79.212
1324.0	79.237
1325.0	79.203
1326.0	79.156
1327.0	79.107
1328.0	79.138
1329.0	79.117
1330.0	79.129
1331.0	79.092
1332.0	79.120
1333.0	79.087
1334.0	79.082
1335.0	79.073
1336.0	79.078
1337.0	79.049
1338.0	79.005
1339.0	78.966
1340.0	78.977
1341.0	78.989
1342.0	78.973
1343.0	78.942
1344.0	78.917
1345.0	78.898
1346.0	78.892
1347.0	78.860
1348.0	78.865
1349.0	78.858
1350.0	78.843
1351.0	78.809
1352.0	78.739
1353.0	78.745
1354.0	78.719
1355.0	78.742
1356.0	78.681
1357.0	78.658
1358.0	78.623
1359.0	78.617
1360.0	78.593
1361.0	78.567
1362.0	78.548
1363.0	78.528
1364.0	78.500
1365.0	78.474
1366.0	78.456
1367.0	78.435
1368.0	78.394
1369.0	78.382
1370.0	78.390
1371.0	78.375
1372.0	78.385
1373.0	78.430
1374.0	78.441
1375.0	78.372
1376.0	78.312
1377.0	78.277
1378.0	78.280
1379.0	78.230
1380.0	78.217
1381.0	78.153
1382.0	78.089
1383.0	77.998
1384.0	77.990
1385.0	77.969
1386.0	77.977
1387.0	77.973
1388.0	77.952
1389.0	77.924
1390.0	77.900
1391.0	77.873
1392.0	77.868
1393.0	77.819
1394.0	77.778
1395.0	77.757
1396.0	77.705
1397.0	77.681
1398.0	77.650
1399.0	77.606
1400.0	77.620
1401.0	77.590
1402.0	77.597
1403.0	77.549
1404.0	77.508
1405.0	77.489
1406.0	77.462
1407.0	77.490
1408.0	77.498
1409.0	77.551
1410.0	77.550
1411.0	77.583
1412.0	77.531
1413.0	77.510
1414.0	77.512
1415.0	77.501
1416.0	77.482
1417.0	77.433
1418.0	77.469
1419.0	77.487
1420.0	77.531
1421.0	77.525
1422.0	77.516
1423.0	77.465
1424.0	77.498
1425.0	77.540
1426.0	77.542
1427.0	77.512
1428.0	77.409
1429.0	77.406
1430.0	77.351
1431.0	77.350
1432.0	77.350
1433.0	77.388
1434.0	77.465
1435.0	77.456
1436.0	77.406
1437.0	77.350
1438.0	77.312
1439.0	77.285
1440.0	77.268
1441.0	77.219
1442.0	77.219
1443.0	77.162
1444.0	77.196
1445.0	77.161
1446.0	77.186
1447.0	77.150
1448.0	77.146
1449.0	77.113
1450.0	77.071
1451.0	77.049
1452.0	77.061
1453.0	77.093
1454.0	77.115
1455.0	77.103
1456.0	77.119
1457.0	77.057
1458.0	77.041
1459.0	77.005
1460.0	77.049
1461.0	77.035
1462.0	77.015
1463.0	77.015
1464.0	77.014
1465.0	77.006
1466.0	76.964
1467.0	76.930
1468.0	76.867
1469.0	76.826
1470.0	76.787
1471.0	76.779
1472.0	76.768
1473.0	76.787
1474.0	76.757
1475.0	76.736
1476.0	76.694
1477.0	76.733
1478.0	76.710
1479.0	76.721
1480.0	76.661
1481.0	76.609
1482.0	76.629
1483.0	76.648
1484.0	76.695
1485.0	76.605
1486.0	76.557
1487.0	76.555
1488.0	76.563
1489.0	76.599
1490.0	76.534
1491.0	76.495
1492.0	76.443
1493.0	76.463
1494.0	76.430
1495.0	76.400
1496.0	76.377
1497.0	76.416
1498.0	76.404
1499.0	76.372
1500.0	76.326
1501.0	76.312
1502.0	76.286
1503.0	76.295
1504.0	76.318
1505.0	76.284
1506.0	76.218
1507.0	76.126
1508.0	76.070
1509.0	76.070
1510.0	76.092
1511.0	76.110
1512.0	76.055
1513.0	76.004
1514.0	76.055
1515.0	76.071
1516.0	76.035
1517.0	75.962
1518.0	75.936
1519.0	75.983
1520.0	75.942
1521.0	75.937
1522.0	75.903
1523.0	75.894
1524.0	75.832
1525.0	75.788
1526.0	75.805
1527.0	75.792
1528.0	75.742
1529.0	75.727
1530.0	75.745
1531.0	75.744
1532.0	75.717
1533.0	75.672
1534.0	75.703
1535.0	75.657
1536.0	75.629
1537.0	75.537
1538.0	75.438
1539.0	75.430
1540.0	75.437
1541.0	75.493
1542.0	75.473
1543.0	75.509
1544.0	75.481
1545.0	75.425
1546.0	75.360
1547.0	75.351
1548.0	75.360
1549.0	75.326
1550.0	75.282
1551.0	75.277
1552.0	75.273
1553.0	75.286
1554.0	75.269
1555.0	75.244
1556.0	75.233
1557.0	75.239
1558.0	75.236
1559.0	75.156
1560.0	75.126
1561.0	75.094
1562.0	75.102
1563.0	75.062
1564.0	75.056
1565.0	75.036
1566.0	74.986
1567.0	74.936
1568.0	74.939
1569.0	74.879
1570.0	74.894
1571.0	74.853
1572.0	74.901
1573.0	74.854
1574.0	74.830
1575.0	74.762
1576.0	74.744
1577.0	74.767
1578.0	74.746
1579.0	74.766
1580.0	74.706
1581.0	74.723
1582.0	74.643
1583.0	74.621
1584.0	74.551
1585.0	74.596
1586.0	74.569
1587.0	74.593
1588.0	74.517
1589.0	74.489
1590.0	74.422
1591.0	74.438
1592.0	74.427
1593.0	74.471
1594.0	74.433
1595.0	74.397
1596.0	74.330
1597.0	74.298
1598.0	74.275
1599.0	74.223
1600.0	74.202
1601.0	74.219
1602.0	74.215
1603.0	74.182
1604.0	74.100
1605.0	74.054
1606.0	74.088
1607.0	74.131
1608.0	74.182
1609.0	74.079
1610.0	74.069
1611.0	74.055
1612.0	74.073
1613.0	74.031
1614.0	73.977
1615.0	73.910
1616.0	73.875
1617.0	73.926
1618.0	74.011
1619.0	74.017
1620.0	73.877
1621.0	73.741
1622.0	73.699
1623.0	73.688
1624.0	73.710
1625.0	73.666
1626.0	73.690
1627.0	73.613
1628.0	73.566
1629.0	73.518
1630.0	73.601
1631.0	73.600
1632.0	73.644
1633.0	73.592
1634.0	73.554
1635.0	73.565
1636.0	73.464
1637.0	73.477
1638.0	73.397
1639.0	73.390
1640.0	73.377
1641.0	73.321
1642.0	73.410
1643.0	73.415
1644.0	73.446
1645.0	73.376
1646.0	73.328
1647.0	73.225
1648.0	73.210
1649.0	73.192
1650.0	73.122
1651.0	73.336
1652.0	73.297
1653.0	73.524
1654.0	73.524
1655.0	74.035
1656.0	73.645
1657.0	73.500
1658.0	72.784
1659.0	73.574
1660.0	73.120
1661.0	73.558
1662.0	72.663
1663.0	73.057
1664.0	72.810
1665.0	72.563
1666.0	72.690
1667.0	73.274
1668.0	74.240
1669.0	74.394
1670.0	74.320
1671.0	74.009
1672.0	73.495
1673.0	73.058
1674.0	73.141
1675.0	73.370
1676.0	72.936
1677.0	72.990
1678.0	72.955
1679.0	73.425
1680.0	72.831
1681.0	72.320
1682.0	72.308
1683.0	72.608
1684.0	73.136
1685.0	73.630
1686.0	73.592
1687.0	73.826
1688.0	73.422
1689.0	73.538
1690.0	73.081
1691.0	72.450
1692.0	72.179
1693.0	72.548
1694.0	72.278
1695.0	71.967
1696.0	71.570
1697.0	71.921
1698.0	72.087
1699.0	72.243
1700.0	72.374
1701.0	72.837
1702.0	73.034
1703.0	73.327
1704.0	73.067
1705.0	72.337
1706.0	72.198
1707.0	72.000
1708.0	72.420
1709.0	72.226
1710.0	71.901
1711.0	71.945
1712.0	71.931
1713.0	72.511
1714.0	72.935
1715.0	72.833
1716.0	72.613
1717.0	71.439
1718.0	71.390
1719.0	71.648
1720.0	72.682
1721.0	73.119
1722.0	73.010
1723.0	72.149
1724.0	72.302
1725.0	72.317
1726.0	72.572
1727.0	72.034
1728.0	72.295
1729.0	72.915
1730.0	73.031
1731.0	73.309
1732.0	72.137
1733.0	72.551
1734.0	71.312
1735.0	72.548
1736.0	72.568
1737.0	72.915
1738.0	72.429
1739.0	71.565
1740.0	71.644
1741.0	72.151
1742.0	71.992
1743.0	72.135
1744.0	71.321
1745.0	71.263
1746.0	71.118
1747.0	70.942
1748.0	71.523
1749.0	71.539
1750.0	72.686
1751.0	71.972
1752.0	71.608
1753.0	70.882
1754.0	71.891
1755.0	72.266
1756.0	71.915
1757.0	71.396
1758.0	70.660
1759.0	71.362
1760.0	70.989
1761.0	72.535
1762.0	72.095
1763.0	72.861
1764.0	71.479
1765.0	70.837
1766.0	70.961
1767.0	70.674
1768.0	70.711
1769.0	70.733
1770.0	71.208
1771.0	71.233
1772.0	70.233
1773.0	70.438
1774.0	70.595
1775.0	70.944
1776.0	71.267
1777.0	71.933
1778.0	71.389
1779.0	70.142
1780.0	70.086
1781.0	70.937
1782.0	71.861
1783.0	70.923
1784.0	70.351
1785.0	70.408
1786.0	71.516
1787.0	71.421
1788.0	71.227
1789.0	70.762
1790.0	71.701
1791.0	71.754
1792.0	70.743
1793.0	69.805
1794.0	69.852
1795.0	71.648
1796.0	72.314
1797.0	71.668
1798.0	70.794
1799.0	70.533
1800.0	71.311
1801.0	71.239
1802.0	71.083
1803.0	71.419
1804.0	71.280
1805.0	71.428
1806.0	70.062
1807.0	69.591
1808.0	69.683
1809.0	70.331
1810.0	70.685
1811.0	70.597
1812.0	70.878
1813.0	70.925
1814.0	70.533
1815.0	70.302
1816.0	70.415
1817.0	71.177
1818.0	70.684
1819.0	70.660
1820.0	69.511
1821.0	70.107
1822.0	70.136
1823.0	70.429
1824.0	69.692
1825.0	70.225
1826.0	71.437
1827.0	71.885
1828.0	71.649
1829.0	70.664
1830.0	71.403
1831.0	71.364
1832.0	71.216
1833.0	71.371
1834.0	71.448
1835.0	71.904
1836.0	70.761
1837.0	69.680
1838.0	69.214
1839.0	69.691
1840.0	71.542
1841.0	71.746
1842.0	71.108
1843.0	69.840
1844.0	69.288
1845.0	69.931
1846.0	70.159
1847.0	70.513
1848.0	70.188
1849.0	68.631
1850.0	68.762
1851.0	69.665
1852.0	70.674
1853.0	70.470
1854.0	69.683
1855.0	68.750
1856.0	67.652
1857.0	68.217
1858.0	68.420
1859.0	69.883
1860.0	68.704
1861.0	70.218
1862.0	70.463
1863.0	71.456
1864.0	71.766
1865.0	70.177
1866.0	70.318
1867.0	69.437
1868.0	70.824
1869.0	69.761
1870.0	68.712
1871.0	67.401
1872.0	67.147
1873.0	68.149
1874.0	68.533
1875.0	69.149
1876.0	69.162
1877.0	70.009
1878.0	69.568
1879.0	68.431
1880.0	68.704
1881.0	68.612
1882.0	70.383
1883.0	69.411
1884.0	70.077
1885.0	70.019
1886.0	69.828
1887.0	70.224
1888.0	70.440
1889.0	70.501
1890.0	69.715
1891.0	68.221
1892.0	67.491
1893.0	67.601
1894.0	68.258
1895.0	69.214
1896.0	67.719
1897.0	66.146
1898.0	66.197
1899.0	67.259
1900.0	68.532
1901.0	69.037
1902.0	69.608
1903.0	68.701
1904.0	69.179
1905.0	69.875
1906.0	71.811
1907.0	70.370
1908.0	70.185
1909.0	70.223
1910.0	72.564
1911.0	71.736
1912.0	70.330
1913.0	67.044
1914.0	68.493
1915.0	68.738
1916.0	68.848
1917.0	70.080
1918.0	69.925
1919.0	71.049
1920.0	70.166
1921.0	69.367
1922.0	70.763
1923.0	69.737
1924.0	70.820
1925.0	68.720
1926.0	66.571
1927.0	65.709
1928.0	67.216
1929.0	68.642
1930.0	69.377
1931.0	69.743
1932.0	69.405
1933.0	69.408
1934.0	68.751
1935.0	68.077
1936.0	67.494
1937.0	68.857
1938.0	69.534
1939.0	68.727
1940.0	70.271
1941.0	68.675
1942.0	70.893
1943.0	68.822
1944.0	70.569
1945.0	68.931
1946.0	67.796
1947.0	68.838
1948.0	68.972
1949.0	69.878
1950.0	67.553
1951.0	67.124
1952.0	67.671
1953.0	68.786
1954.0	69.707
1955.0	68.713
1956.0	68.744
1957.0	69.250
1958.0	67.593
1959.0	68.494
1960.0	68.329
1961.0	69.542
1962.0	68.906
1963.0	69.064
1964.0	68.244
1965.0	67.266
1966.0	66.943
1967.0	66.334
1968.0	67.111
1969.0	66.585
1970.0	68.914
1971.0	67.947
1972.0	68.103
1973.0	66.658
1974.0	66.638
1975.0	67.072
1976.0	68.771
1977.0	68.911
1978.0	68.891
1979.0	68.427
1980.0	70.787
1981.0	69.565
1982.0	68.975
1983.0	67.350
1984.0	67.123
1985.0	66.523
1986.0	65.310
1987.0	66.304
1988.0	67.271
1989.0	69.848
1990.0	70.385
1991.0	69.962
1992.0	67.580
1993.0	66.656
1994.0	67.393
1995.0	68.686
1996.0	69.179
1997.0	67.519
1998.0	67.471
1999.0	66.874
2000.0	66.653
