[SUMMARY]
Software Information
Software Name:	UVProbe
Version:	2.43
Mode:	Normal Mode

Data Information
Data is:	Original
Analyst:	
Date/Time:	06/03/2023 12:55:46
Comments:	

Instrument Information
Instrument Name:	SolidSpec3700
Instrument Type:	SolidSpec-3700 Series
Model (S/N):	SolidSpec3700 ( A11085100264CZ )

[METHOD]
[Measurement Properties]
Wavelength Range (nm.):	285,00 to 2000,00
Scan Speed:	Medium
Sampling Interval:	1,0
Auto Sampling Interval:	Disabled
Scan Mode:	Single

[Sample Preparation Properties]
Weight:	
Volume:	
Dilution:	
Path Length:	
Additional Information:	

[Instrument Properties]
Instrument Type:	SolidSpec-3700 Series
Measuring Mode:	Transmittance
Slit Width:	5,0 nm
Time Constant:	1,0 sec.
Source Lamp:	Auto
Light Source Change Wavelength:	282,00 nm
Detector Unit:	Integral Sphere
Detector Change Wavelength:	870,00 nm  1650,00 nm
Grating Change Wavelength:	800,00 nm
S/R Exchange:	Normal
Detector Lock:	Auto
Slit Program:	Fixed
Beam Mode:	Double
Stair Correction:	Disable

[Attachment Properties]
Attachment:	None

[Operation]
Threshold:	0,0010000
Points:	4
InterPolate:	Disabled
Average:	Disabled

[DATA]
Wavelength	Data
285.0	36.261
286.0	36.748
287.0	37.534
288.0	38.315
289.0	39.040
290.0	39.739
291.0	40.533
292.0	41.292
293.0	41.979
294.0	42.485
295.0	42.937
296.0	43.485
297.0	43.995
298.0	44.664
299.0	45.133
300.0	45.661
301.0	46.020
302.0	46.449
303.0	46.658
304.0	47.029
305.0	47.226
306.0	47.593
307.0	47.670
308.0	47.755
309.0	47.884
310.0	48.168
311.0	48.418
312.0	48.414
313.0	48.300
314.0	48.152
315.0	48.053
316.0	47.992
317.0	47.936
318.0	47.836
319.0	47.640
320.0	47.454
321.0	47.274
322.0	46.958
323.0	46.666
324.0	46.227
325.0	45.966
326.0	45.581
327.0	45.216
328.0	44.797
329.0	44.405
330.0	44.104
331.0	43.705
332.0	43.291
333.0	42.850
334.0	42.446
335.0	41.959
336.0	41.457
337.0	40.948
338.0	40.586
339.0	40.056
340.0	39.622
341.0	39.077
342.0	38.587
343.0	38.030
344.0	37.431
345.0	36.942
346.0	36.368
347.0	35.867
348.0	35.355
349.0	34.826
350.0	34.260
351.0	33.592
352.0	32.966
353.0	32.394
354.0	31.783
355.0	31.228
356.0	30.544
357.0	29.987
358.0	29.365
359.0	28.816
360.0	28.211
361.0	27.602
362.0	27.015
363.0	26.462
364.0	25.943
365.0	25.454
366.0	24.952
367.0	24.495
368.0	24.027
369.0	23.645
370.0	23.275
371.0	22.972
372.0	22.663
373.0	22.405
374.0	22.173
375.0	22.005
376.0	21.848
377.0	21.728
378.0	21.676
379.0	21.619
380.0	21.612
381.0	21.599
382.0	21.685
383.0	21.778
384.0	21.951
385.0	22.130
386.0	22.328
387.0	22.530
388.0	22.745
389.0	23.023
390.0	23.309
391.0	23.614
392.0	23.918
393.0	24.228
394.0	24.562
395.0	24.919
396.0	25.266
397.0	25.630
398.0	26.012
399.0	26.369
400.0	26.740
401.0	27.080
402.0	27.448
403.0	27.790
404.0	28.129
405.0	28.466
406.0	28.786
407.0	29.085
408.0	29.390
409.0	29.699
410.0	30.000
411.0	30.311
412.0	30.636
413.0	30.965
414.0	31.303
415.0	31.636
416.0	31.995
417.0	32.365
418.0	32.725
419.0	33.082
420.0	33.444
421.0	33.855
422.0	34.269
423.0	34.641
424.0	34.957
425.0	35.289
426.0	35.643
427.0	36.011
428.0	36.343
429.0	36.617
430.0	36.876
431.0	37.084
432.0	37.263
433.0	37.378
434.0	37.452
435.0	37.542
436.0	37.598
437.0	37.619
438.0	37.570
439.0	37.536
440.0	37.474
441.0	37.408
442.0	37.281
443.0	37.144
444.0	36.946
445.0	36.764
446.0	36.565
447.0	36.406
448.0	36.210
449.0	36.059
450.0	35.886
451.0	35.702
452.0	35.494
453.0	35.299
454.0	35.121
455.0	34.946
456.0	34.774
457.0	34.628
458.0	34.484
459.0	34.351
460.0	34.217
461.0	34.089
462.0	33.977
463.0	33.864
464.0	33.783
465.0	33.689
466.0	33.626
467.0	33.557
468.0	33.511
469.0	33.481
470.0	33.435
471.0	33.419
472.0	33.382
473.0	33.386
474.0	33.385
475.0	33.418
476.0	33.448
477.0	33.470
478.0	33.490
479.0	33.499
480.0	33.549
481.0	33.606
482.0	33.677
483.0	33.754
484.0	33.801
485.0	33.897
486.0	33.993
487.0	34.109
488.0	34.224
489.0	34.331
490.0	34.460
491.0	34.600
492.0	34.744
493.0	34.910
494.0	35.053
495.0	35.217
496.0	35.416
497.0	35.618
498.0	35.820
499.0	36.020
500.0	36.239
501.0	36.478
502.0	36.711
503.0	36.951
504.0	37.196
505.0	37.448
506.0	37.706
507.0	37.975
508.0	38.245
509.0	38.519
510.0	38.778
511.0	39.033
512.0	39.298
513.0	39.573
514.0	39.836
515.0	40.072
516.0	40.334
517.0	40.620
518.0	40.899
519.0	41.152
520.0	41.405
521.0	41.662
522.0	41.921
523.0	42.156
524.0	42.413
525.0	42.630
526.0	42.892
527.0	43.093
528.0	43.334
529.0	43.508
530.0	43.720
531.0	43.871
532.0	44.072
533.0	44.249
534.0	44.453
535.0	44.607
536.0	44.714
537.0	44.861
538.0	44.976
539.0	45.104
540.0	45.162
541.0	45.240
542.0	45.325
543.0	45.387
544.0	45.416
545.0	45.440
546.0	45.508
547.0	45.547
548.0	45.592
549.0	45.581
550.0	45.615
551.0	45.595
552.0	45.563
553.0	45.483
554.0	45.436
555.0	45.408
556.0	45.372
557.0	45.305
558.0	45.268
559.0	45.184
560.0	45.151
561.0	45.046
562.0	44.987
563.0	44.876
564.0	44.772
565.0	44.674
566.0	44.542
567.0	44.439
568.0	44.292
569.0	44.193
570.0	44.045
571.0	43.920
572.0	43.767
573.0	43.598
574.0	43.439
575.0	43.270
576.0	43.101
577.0	42.926
578.0	42.740
579.0	42.589
580.0	42.425
581.0	42.255
582.0	42.068
583.0	41.882
584.0	41.711
585.0	41.528
586.0	41.331
587.0	41.137
588.0	40.951
589.0	40.763
590.0	40.582
591.0	40.375
592.0	40.193
593.0	39.992
594.0	39.819
595.0	39.617
596.0	39.411
597.0	39.179
598.0	38.984
599.0	38.768
600.0	38.589
601.0	38.358
602.0	38.136
603.0	37.895
604.0	37.688
605.0	37.487
606.0	37.270
607.0	37.037
608.0	36.852
609.0	36.647
610.0	36.457
611.0	36.214
612.0	36.024
613.0	35.802
614.0	35.604
615.0	35.390
616.0	35.176
617.0	34.948
618.0	34.738
619.0	34.532
620.0	34.352
621.0	34.146
622.0	33.928
623.0	33.697
624.0	33.477
625.0	33.275
626.0	33.075
627.0	32.878
628.0	32.689
629.0	32.500
630.0	32.283
631.0	32.097
632.0	31.901
633.0	31.733
634.0	31.538
635.0	31.328
636.0	31.119
637.0	30.923
638.0	30.740
639.0	30.579
640.0	30.415
641.0	30.245
642.0	30.064
643.0	29.884
644.0	29.722
645.0	29.555
646.0	29.387
647.0	29.226
648.0	29.049
649.0	28.863
650.0	28.692
651.0	28.532
652.0	28.372
653.0	28.207
654.0	28.053
655.0	27.876
656.0	27.697
657.0	27.528
658.0	27.391
659.0	27.238
660.0	27.097
661.0	26.958
662.0	26.836
663.0	26.714
664.0	26.591
665.0	26.487
666.0	26.370
667.0	26.269
668.0	26.144
669.0	26.018
670.0	25.892
671.0	25.761
672.0	25.623
673.0	25.481
674.0	25.374
675.0	25.285
676.0	25.192
677.0	25.068
678.0	24.942
679.0	24.854
680.0	24.777
681.0	24.717
682.0	24.644
683.0	24.545
684.0	24.460
685.0	24.369
686.0	24.328
687.0	24.251
688.0	24.166
689.0	24.082
690.0	24.027
691.0	23.982
692.0	23.910
693.0	23.830
694.0	23.749
695.0	23.700
696.0	23.629
697.0	23.550
698.0	23.464
699.0	23.397
700.0	23.376
701.0	23.314
702.0	23.297
703.0	23.218
704.0	23.170
705.0	23.124
706.0	23.068
707.0	23.029
708.0	22.950
709.0	22.930
710.0	22.884
711.0	22.864
712.0	22.790
713.0	22.748
714.0	22.684
715.0	22.644
716.0	22.578
717.0	22.535
718.0	22.488
719.0	22.456
720.0	22.372
721.0	22.315
722.0	22.270
723.0	22.223
724.0	22.207
725.0	22.170
726.0	22.152
727.0	22.063
728.0	22.001
729.0	21.930
730.0	21.903
731.0	21.846
732.0	21.787
733.0	21.752
734.0	21.696
735.0	21.657
736.0	21.578
737.0	21.517
738.0	21.420
739.0	21.344
740.0	21.290
741.0	21.261
742.0	21.209
743.0	21.139
744.0	21.065
745.0	21.031
746.0	20.976
747.0	20.897
748.0	20.821
749.0	20.775
750.0	20.769
751.0	20.718
752.0	20.654
753.0	20.554
754.0	20.488
755.0	20.415
756.0	20.371
757.0	20.305
758.0	20.270
759.0	20.212
760.0	20.179
761.0	20.138
762.0	20.089
763.0	20.057
764.0	19.990
765.0	19.963
766.0	19.919
767.0	19.877
768.0	19.824
769.0	19.766
770.0	19.706
771.0	19.688
772.0	19.633
773.0	19.644
774.0	19.646
775.0	19.597
776.0	19.514
777.0	19.432
778.0	19.420
779.0	19.407
780.0	19.421
781.0	19.386
782.0	19.369
783.0	19.298
784.0	19.295
785.0	19.257
786.0	19.247
787.0	19.212
788.0	19.213
789.0	19.203
790.0	19.159
791.0	19.146
792.0	19.131
793.0	19.103
794.0	19.064
795.0	19.017
796.0	19.024
797.0	19.023
798.0	18.998
799.0	18.997
800.0	18.927
801.0	18.914
802.0	18.884
803.0	18.884
804.0	18.853
805.0	18.822
806.0	18.793
807.0	18.774
808.0	18.726
809.0	18.703
810.0	18.656
811.0	18.636
812.0	18.626
813.0	18.603
814.0	18.573
815.0	18.518
816.0	18.503
817.0	18.461
818.0	18.423
819.0	18.371
820.0	18.344
821.0	18.316
822.0	18.297
823.0	18.269
824.0	18.243
825.0	18.200
826.0	18.146
827.0	18.109
828.0	18.076
829.0	18.066
830.0	18.029
831.0	17.988
832.0	17.929
833.0	17.897
834.0	17.863
835.0	17.819
836.0	17.765
837.0	17.696
838.0	17.680
839.0	17.663
840.0	17.641
841.0	17.595
842.0	17.560
843.0	17.513
844.0	17.518
845.0	17.475
846.0	17.461
847.0	17.399
848.0	17.388
849.0	17.375
850.0	17.342
851.0	17.331
852.0	17.257
853.0	17.221
854.0	17.167
855.0	17.161
856.0	17.146
857.0	17.083
858.0	17.029
859.0	17.024
860.0	16.958
861.0	16.969
862.0	16.880
863.0	16.819
864.0	16.803
865.0	16.816
866.0	16.925
867.0	16.945
868.0	16.957
869.0	16.989
870.0	17.057
871.0	16.977
872.0	16.826
873.0	16.531
874.0	16.485
875.0	16.633
876.0	16.876
877.0	16.983
878.0	16.900
879.0	16.691
880.0	16.664
881.0	16.678
882.0	16.788
883.0	16.928
884.0	16.922
885.0	16.965
886.0	16.883
887.0	16.950
888.0	16.935
889.0	17.050
890.0	17.125
891.0	17.197
892.0	17.164
893.0	17.131
894.0	17.144
895.0	17.097
896.0	17.128
897.0	17.243
898.0	17.316
899.0	17.279
900.0	17.294
901.0	17.328
902.0	17.411
903.0	17.434
904.0	17.385
905.0	17.396
906.0	17.368
907.0	17.449
908.0	17.507
909.0	17.589
910.0	17.655
911.0	17.730
912.0	17.681
913.0	17.693
914.0	17.706
915.0	17.783
916.0	17.839
917.0	17.829
918.0	17.882
919.0	17.971
920.0	18.041
921.0	18.065
922.0	17.989
923.0	18.021
924.0	18.060
925.0	18.163
926.0	18.197
927.0	18.176
928.0	18.187
929.0	18.216
930.0	18.241
931.0	18.294
932.0	18.313
933.0	18.448
934.0	18.463
935.0	18.503
936.0	18.443
937.0	18.513
938.0	18.520
939.0	18.592
940.0	18.583
941.0	18.671
942.0	18.705
943.0	18.768
944.0	18.778
945.0	18.801
946.0	18.810
947.0	18.840
948.0	18.887
949.0	18.897
950.0	18.943
951.0	18.980
952.0	19.053
953.0	19.073
954.0	19.178
955.0	19.235
956.0	19.285
957.0	19.288
958.0	19.317
959.0	19.350
960.0	19.346
961.0	19.385
962.0	19.397
963.0	19.463
964.0	19.475
965.0	19.489
966.0	19.524
967.0	19.567
968.0	19.645
969.0	19.659
970.0	19.705
971.0	19.737
972.0	19.778
973.0	19.804
974.0	19.818
975.0	19.872
976.0	19.882
977.0	19.921
978.0	19.926
979.0	19.988
980.0	20.027
981.0	20.063
982.0	20.068
983.0	20.102
984.0	20.104
985.0	20.136
986.0	20.137
987.0	20.199
988.0	20.241
989.0	20.301
990.0	20.329
991.0	20.354
992.0	20.364
993.0	20.402
994.0	20.438
995.0	20.488
996.0	20.515
997.0	20.527
998.0	20.551
999.0	20.583
1000.0	20.623
1001.0	20.664
1002.0	20.690
1003.0	20.741
1004.0	20.771
1005.0	20.802
1006.0	20.839
1007.0	20.874
1008.0	20.923
1009.0	20.932
1010.0	20.937
1011.0	20.962
1012.0	21.010
1013.0	21.059
1014.0	21.070
1015.0	21.085
1016.0	21.107
1017.0	21.133
1018.0	21.151
1019.0	21.185
1020.0	21.241
1021.0	21.269
1022.0	21.286
1023.0	21.302
1024.0	21.336
1025.0	21.356
1026.0	21.379
1027.0	21.412
1028.0	21.457
1029.0	21.468
1030.0	21.500
1031.0	21.537
1032.0	21.565
1033.0	21.586
1034.0	21.607
1035.0	21.656
1036.0	21.675
1037.0	21.692
1038.0	21.711
1039.0	21.744
1040.0	21.777
1041.0	21.814
1042.0	21.832
1043.0	21.853
1044.0	21.875
1045.0	21.924
1046.0	21.951
1047.0	21.974
1048.0	21.993
1049.0	22.055
1050.0	22.085
1051.0	22.097
1052.0	22.093
1053.0	22.112
1054.0	22.165
1055.0	22.205
1056.0	22.253
1057.0	22.265
1058.0	22.298
1059.0	22.312
1060.0	22.334
1061.0	22.352
1062.0	22.379
1063.0	22.406
1064.0	22.446
1065.0	22.476
1066.0	22.528
1067.0	22.528
1068.0	22.562
1069.0	22.572
1070.0	22.614
1071.0	22.634
1072.0	22.650
1073.0	22.666
1074.0	22.694
1075.0	22.722
1076.0	22.753
1077.0	22.769
1078.0	22.791
1079.0	22.820
1080.0	22.857
1081.0	22.894
1082.0	22.921
1083.0	22.955
1084.0	22.986
1085.0	22.997
1086.0	22.999
1087.0	23.024
1088.0	23.065
1089.0	23.107
1090.0	23.131
1091.0	23.156
1092.0	23.165
1093.0	23.171
1094.0	23.184
1095.0	23.210
1096.0	23.250
1097.0	23.280
1098.0	23.302
1099.0	23.309
1100.0	23.322
1101.0	23.354
1102.0	23.386
1103.0	23.408
1104.0	23.437
1105.0	23.464
1106.0	23.496
1107.0	23.512
1108.0	23.529
1109.0	23.557
1110.0	23.575
1111.0	23.584
1112.0	23.588
1113.0	23.609
1114.0	23.634
1115.0	23.638
1116.0	23.654
1117.0	23.675
1118.0	23.707
1119.0	23.720
1120.0	23.723
1121.0	23.743
1122.0	23.743
1123.0	23.773
1124.0	23.795
1125.0	23.824
1126.0	23.812
1127.0	23.809
1128.0	23.828
1129.0	23.854
1130.0	23.872
1131.0	23.867
1132.0	23.878
1133.0	23.892
1134.0	23.909
1135.0	23.921
1136.0	23.924
1137.0	23.925
1138.0	23.932
1139.0	23.937
1140.0	23.949
1141.0	23.965
1142.0	23.973
1143.0	23.981
1144.0	23.970
1145.0	23.964
1146.0	23.963
1147.0	23.955
1148.0	23.970
1149.0	23.967
1150.0	23.992
1151.0	23.978
1152.0	23.991
1153.0	23.993
1154.0	24.006
1155.0	23.990
1156.0	23.986
1157.0	23.978
1158.0	23.975
1159.0	23.987
1160.0	23.998
1161.0	24.001
1162.0	23.985
1163.0	23.972
1164.0	23.976
1165.0	23.975
1166.0	23.973
1167.0	23.961
1168.0	23.948
1169.0	23.937
1170.0	23.936
1171.0	23.931
1172.0	23.919
1173.0	23.910
1174.0	23.912
1175.0	23.912
1176.0	23.904
1177.0	23.883
1178.0	23.874
1179.0	23.863
1180.0	23.863
1181.0	23.838
1182.0	23.824
1183.0	23.793
1184.0	23.787
1185.0	23.759
1186.0	23.745
1187.0	23.727
1188.0	23.735
1189.0	23.717
1190.0	23.707
1191.0	23.670
1192.0	23.657
1193.0	23.645
1194.0	23.630
1195.0	23.620
1196.0	23.592
1197.0	23.576
1198.0	23.532
1199.0	23.503
1200.0	23.470
1201.0	23.450
1202.0	23.448
1203.0	23.446
1204.0	23.428
1205.0	23.386
1206.0	23.351
1207.0	23.334
1208.0	23.327
1209.0	23.299
1210.0	23.269
1211.0	23.242
1212.0	23.232
1213.0	23.223
1214.0	23.184
1215.0	23.152
1216.0	23.121
1217.0	23.100
1218.0	23.073
1219.0	23.036
1220.0	23.013
1221.0	22.989
1222.0	22.978
1223.0	22.957
1224.0	22.910
1225.0	22.871
1226.0	22.832
1227.0	22.814
1228.0	22.793
1229.0	22.764
1230.0	22.745
1231.0	22.702
1232.0	22.676
1233.0	22.638
1234.0	22.609
1235.0	22.571
1236.0	22.531
1237.0	22.498
1238.0	22.472
1239.0	22.454
1240.0	22.437
1241.0	22.408
1242.0	22.387
1243.0	22.340
1244.0	22.304
1245.0	22.254
1246.0	22.219
1247.0	22.184
1248.0	22.175
1249.0	22.153
1250.0	22.134
1251.0	22.081
1252.0	22.037
1253.0	21.995
1254.0	21.969
1255.0	21.933
1256.0	21.891
1257.0	21.860
1258.0	21.835
1259.0	21.809
1260.0	21.767
1261.0	21.735
1262.0	21.705
1263.0	21.685
1264.0	21.662
1265.0	21.631
1266.0	21.585
1267.0	21.544
1268.0	21.502
1269.0	21.462
1270.0	21.433
1271.0	21.416
1272.0	21.410
1273.0	21.394
1274.0	21.353
1275.0	21.320
1276.0	21.281
1277.0	21.267
1278.0	21.230
1279.0	21.195
1280.0	21.163
1281.0	21.126
1282.0	21.097
1283.0	21.065
1284.0	21.045
1285.0	21.003
1286.0	20.977
1287.0	20.943
1288.0	20.923
1289.0	20.898
1290.0	20.879
1291.0	20.857
1292.0	20.805
1293.0	20.762
1294.0	20.735
1295.0	20.713
1296.0	20.680
1297.0	20.647
1298.0	20.621
1299.0	20.588
1300.0	20.541
1301.0	20.503
1302.0	20.479
1303.0	20.452
1304.0	20.403
1305.0	20.343
1306.0	20.302
1307.0	20.284
1308.0	20.268
1309.0	20.232
1310.0	20.187
1311.0	20.158
1312.0	20.124
1313.0	20.083
1314.0	20.053
1315.0	20.040
1316.0	20.002
1317.0	19.961
1318.0	19.914
1319.0	19.890
1320.0	19.888
1321.0	19.885
1322.0	19.875
1323.0	19.839
1324.0	19.802
1325.0	19.769
1326.0	19.738
1327.0	19.689
1328.0	19.666
1329.0	19.614
1330.0	19.597
1331.0	19.557
1332.0	19.527
1333.0	19.489
1334.0	19.470
1335.0	19.447
1336.0	19.429
1337.0	19.390
1338.0	19.363
1339.0	19.330
1340.0	19.320
1341.0	19.296
1342.0	19.273
1343.0	19.233
1344.0	19.218
1345.0	19.186
1346.0	19.141
1347.0	19.093
1348.0	19.043
1349.0	19.022
1350.0	19.017
1351.0	19.008
1352.0	18.993
1353.0	18.933
1354.0	18.908
1355.0	18.873
1356.0	18.851
1357.0	18.818
1358.0	18.782
1359.0	18.747
1360.0	18.681
1361.0	18.646
1362.0	18.636
1363.0	18.637
1364.0	18.611
1365.0	18.580
1366.0	18.554
1367.0	18.529
1368.0	18.488
1369.0	18.470
1370.0	18.454
1371.0	18.448
1372.0	18.409
1373.0	18.377
1374.0	18.339
1375.0	18.306
1376.0	18.268
1377.0	18.239
1378.0	18.214
1379.0	18.192
1380.0	18.153
1381.0	18.110
1382.0	18.068
1383.0	18.019
1384.0	17.999
1385.0	17.985
1386.0	17.971
1387.0	17.974
1388.0	17.934
1389.0	17.927
1390.0	17.892
1391.0	17.874
1392.0	17.853
1393.0	17.791
1394.0	17.748
1395.0	17.710
1396.0	17.697
1397.0	17.697
1398.0	17.671
1399.0	17.658
1400.0	17.623
1401.0	17.610
1402.0	17.588
1403.0	17.577
1404.0	17.526
1405.0	17.509
1406.0	17.498
1407.0	17.512
1408.0	17.479
1409.0	17.453
1410.0	17.434
1411.0	17.422
1412.0	17.387
1413.0	17.357
1414.0	17.349
1415.0	17.336
1416.0	17.311
1417.0	17.299
1418.0	17.287
1419.0	17.261
1420.0	17.230
1421.0	17.218
1422.0	17.199
1423.0	17.202
1424.0	17.170
1425.0	17.189
1426.0	17.154
1427.0	17.159
1428.0	17.119
1429.0	17.126
1430.0	17.074
1431.0	17.052
1432.0	16.999
1433.0	17.017
1434.0	16.999
1435.0	16.989
1436.0	16.943
1437.0	16.936
1438.0	16.897
1439.0	16.882
1440.0	16.851
1441.0	16.840
1442.0	16.821
1443.0	16.799
1444.0	16.810
1445.0	16.798
1446.0	16.777
1447.0	16.733
1448.0	16.730
1449.0	16.733
1450.0	16.744
1451.0	16.729
1452.0	16.721
1453.0	16.695
1454.0	16.675
1455.0	16.652
1456.0	16.625
1457.0	16.612
1458.0	16.581
1459.0	16.580
1460.0	16.558
1461.0	16.548
1462.0	16.496
1463.0	16.481
1464.0	16.480
1465.0	16.456
1466.0	16.423
1467.0	16.400
1468.0	16.417
1469.0	16.403
1470.0	16.373
1471.0	16.340
1472.0	16.335
1473.0	16.328
1474.0	16.294
1475.0	16.260
1476.0	16.242
1477.0	16.264
1478.0	16.256
1479.0	16.229
1480.0	16.204
1481.0	16.206
1482.0	16.204
1483.0	16.210
1484.0	16.190
1485.0	16.194
1486.0	16.164
1487.0	16.165
1488.0	16.151
1489.0	16.147
1490.0	16.111
1491.0	16.069
1492.0	16.033
1493.0	16.029
1494.0	16.001
1495.0	15.994
1496.0	15.967
1497.0	15.951
1498.0	15.926
1499.0	15.925
1500.0	15.956
1501.0	15.922
1502.0	15.884
1503.0	15.820
1504.0	15.826
1505.0	15.815
1506.0	15.826
1507.0	15.796
1508.0	15.782
1509.0	15.766
1510.0	15.750
1511.0	15.743
1512.0	15.707
1513.0	15.724
1514.0	15.701
1515.0	15.704
1516.0	15.654
1517.0	15.655
1518.0	15.654
1519.0	15.676
1520.0	15.647
1521.0	15.628
1522.0	15.606
1523.0	15.600
1524.0	15.553
1525.0	15.537
1526.0	15.538
1527.0	15.550
1528.0	15.525
1529.0	15.477
1530.0	15.472
1531.0	15.442
1532.0	15.474
1533.0	15.462
1534.0	15.494
1535.0	15.472
1536.0	15.452
1537.0	15.423
1538.0	15.393
1539.0	15.387
1540.0	15.360
1541.0	15.362
1542.0	15.348
1543.0	15.373
1544.0	15.354
1545.0	15.331
1546.0	15.323
1547.0	15.298
1548.0	15.282
1549.0	15.234
1550.0	15.201
1551.0	15.195
1552.0	15.187
1553.0	15.198
1554.0	15.191
1555.0	15.168
1556.0	15.182
1557.0	15.164
1558.0	15.183
1559.0	15.149
1560.0	15.136
1561.0	15.118
1562.0	15.098
1563.0	15.088
1564.0	15.051
1565.0	15.047
1566.0	15.050
1567.0	15.045
1568.0	15.037
1569.0	15.023
1570.0	15.013
1571.0	14.985
1572.0	14.949
1573.0	14.958
1574.0	14.934
1575.0	14.934
1576.0	14.908
1577.0	14.926
1578.0	14.951
1579.0	14.942
1580.0	14.932
1581.0	14.870
1582.0	14.882
1583.0	14.890
1584.0	14.884
1585.0	14.880
1586.0	14.841
1587.0	14.862
1588.0	14.855
1589.0	14.862
1590.0	14.844
1591.0	14.781
1592.0	14.737
1593.0	14.718
1594.0	14.738
1595.0	14.741
1596.0	14.707
1597.0	14.650
1598.0	14.664
1599.0	14.684
1600.0	14.707
1601.0	14.689
1602.0	14.649
1603.0	14.671
1604.0	14.643
1605.0	14.652
1606.0	14.610
1607.0	14.621
1608.0	14.621
1609.0	14.664
1610.0	14.619
1611.0	14.585
1612.0	14.543
1613.0	14.527
1614.0	14.552
1615.0	14.519
1616.0	14.578
1617.0	14.560
1618.0	14.548
1619.0	14.466
1620.0	14.460
1621.0	14.472
1622.0	14.515
1623.0	14.503
1624.0	14.469
1625.0	14.437
1626.0	14.436
1627.0	14.429
1628.0	14.410
1629.0	14.354
1630.0	14.353
1631.0	14.384
1632.0	14.402
1633.0	14.412
1634.0	14.355
1635.0	14.353
1636.0	14.348
1637.0	14.362
1638.0	14.350
1639.0	14.288
1640.0	14.319
1641.0	14.285
1642.0	14.292
1643.0	14.226
1644.0	14.251
1645.0	14.231
1646.0	14.259
1647.0	14.262
1648.0	14.282
1649.0	14.206
1650.0	14.070
1651.0	14.075
1652.0	14.010
1653.0	14.145
1654.0	14.274
1655.0	14.362
1656.0	14.145
1657.0	14.334
1658.0	14.453
1659.0	14.335
1660.0	14.131
1661.0	13.795
1662.0	14.167
1663.0	13.979
1664.0	14.218
1665.0	13.573
1666.0	14.075
1667.0	14.109
1668.0	14.566
1669.0	14.030
1670.0	13.880
1671.0	13.768
1672.0	13.964
1673.0	14.073
1674.0	14.457
1675.0	14.359
1676.0	14.405
1677.0	14.097
1678.0	14.063
1679.0	14.046
1680.0	14.079
1681.0	14.068
1682.0	14.116
1683.0	14.699
1684.0	14.415
1685.0	14.300
1686.0	13.954
1687.0	14.161
1688.0	14.321
1689.0	14.010
1690.0	13.931
1691.0	13.817
1692.0	13.731
1693.0	13.781
1694.0	13.862
1695.0	14.247
1696.0	14.331
1697.0	14.622
1698.0	13.793
1699.0	13.751
1700.0	12.946
1701.0	13.535
1702.0	13.545
1703.0	13.581
1704.0	13.479
1705.0	13.370
1706.0	13.605
1707.0	13.759
1708.0	13.920
1709.0	14.365
1710.0	14.297
1711.0	13.937
1712.0	13.380
1713.0	13.114
1714.0	13.577
1715.0	13.824
1716.0	13.920
1717.0	13.822
1718.0	13.722
1719.0	13.937
1720.0	13.693
1721.0	13.522
1722.0	13.554
1723.0	13.742
1724.0	14.266
1725.0	14.400
1726.0	14.253
1727.0	13.944
1728.0	13.538
1729.0	13.582
1730.0	13.234
1731.0	13.860
1732.0	14.200
1733.0	14.663
1734.0	14.204
1735.0	14.160
1736.0	13.988
1737.0	13.948
1738.0	13.743
1739.0	13.719
1740.0	13.210
1741.0	13.320
1742.0	13.418
1743.0	14.090
1744.0	13.411
1745.0	13.121
1746.0	13.092
1747.0	13.820
1748.0	14.459
1749.0	14.495
1750.0	14.101
1751.0	13.650
1752.0	13.591
1753.0	13.367
1754.0	13.197
1755.0	12.339
1756.0	12.502
1757.0	12.609
1758.0	12.887
1759.0	13.218
1760.0	13.394
1761.0	14.132
1762.0	13.950
1763.0	14.284
1764.0	13.792
1765.0	13.733
1766.0	13.502
1767.0	13.273
1768.0	13.523
1769.0	13.135
1770.0	13.570
1771.0	13.028
1772.0	12.692
1773.0	12.385
1774.0	12.613
1775.0	12.895
1776.0	13.628
1777.0	14.273
1778.0	14.825
1779.0	14.597
1780.0	14.030
1781.0	13.566
1782.0	13.466
1783.0	13.665
1784.0	13.579
1785.0	13.497
1786.0	13.631
1787.0	13.978
1788.0	13.358
1789.0	13.080
1790.0	13.038
1791.0	13.682
1792.0	13.905
1793.0	13.107
1794.0	12.919
1795.0	13.031
1796.0	13.511
1797.0	13.238
1798.0	12.846
1799.0	13.261
1800.0	13.715
1801.0	13.748
1802.0	13.555
1803.0	13.017
1804.0	13.111
1805.0	13.198
1806.0	13.285
1807.0	13.431
1808.0	13.403
1809.0	14.196
1810.0	14.405
1811.0	14.659
1812.0	14.847
1813.0	14.502
1814.0	14.239
1815.0	13.603
1816.0	13.215
1817.0	13.504
1818.0	13.102
1819.0	13.331
1820.0	12.430
1821.0	12.912
1822.0	12.548
1823.0	13.775
1824.0	13.671
1825.0	14.164
1826.0	13.397
1827.0	13.407
1828.0	13.457
1829.0	13.732
1830.0	13.440
1831.0	13.348
1832.0	13.324
1833.0	13.831
1834.0	13.456
1835.0	13.080
1836.0	13.020
1837.0	13.754
1838.0	13.647
1839.0	13.373
1840.0	12.863
1841.0	13.686
1842.0	13.645
1843.0	13.636
1844.0	12.657
1845.0	12.796
1846.0	12.367
1847.0	11.862
1848.0	11.751
1849.0	12.726
1850.0	13.627
1851.0	13.050
1852.0	13.098
1853.0	13.466
1854.0	14.346
1855.0	13.861
1856.0	13.304
1857.0	13.345
1858.0	13.843
1859.0	13.290
1860.0	13.109
1861.0	13.205
1862.0	14.020
1863.0	13.902
1864.0	13.237
1865.0	12.696
1866.0	12.711
1867.0	12.832
1868.0	13.260
1869.0	13.323
1870.0	13.079
1871.0	13.382
1872.0	13.623
1873.0	14.049
1874.0	14.026
1875.0	14.130
1876.0	13.993
1877.0	13.593
1878.0	13.581
1879.0	13.257
1880.0	13.773
1881.0	13.363
1882.0	13.071
1883.0	12.364
1884.0	12.100
1885.0	12.755
1886.0	12.149
1887.0	13.260
1888.0	12.816
1889.0	13.820
1890.0	12.821
1891.0	13.237
1892.0	13.282
1893.0	13.152
1894.0	13.747
1895.0	13.492
1896.0	13.614
1897.0	12.811
1898.0	12.873
1899.0	13.101
1900.0	12.899
1901.0	12.610
1902.0	12.422
1903.0	12.120
1904.0	12.299
1905.0	12.492
1906.0	12.746
1907.0	12.547
1908.0	12.205
1909.0	12.253
1910.0	12.979
1911.0	12.619
1912.0	11.945
1913.0	12.222
1914.0	13.546
1915.0	14.805
1916.0	14.480
1917.0	13.294
1918.0	12.353
1919.0	11.719
1920.0	11.762
1921.0	11.242
1922.0	10.867
1923.0	11.368
1924.0	13.469
1925.0	13.383
1926.0	13.769
1927.0	13.411
1928.0	14.446
1929.0	14.607
1930.0	12.465
1931.0	11.947
1932.0	11.717
1933.0	13.439
1934.0	12.681
1935.0	12.241
1936.0	11.984
1937.0	14.297
1938.0	13.762
1939.0	14.237
1940.0	13.098
1941.0	13.577
1942.0	13.744
1943.0	13.602
1944.0	13.813
1945.0	13.514
1946.0	13.131
1947.0	13.773
1948.0	13.350
1949.0	13.418
1950.0	12.081
1951.0	11.783
1952.0	12.106
1953.0	13.498
1954.0	13.215
1955.0	13.692
1956.0	12.578
1957.0	13.386
1958.0	13.063
1959.0	13.565
1960.0	13.682
1961.0	13.458
1962.0	12.888
1963.0	13.032
1964.0	13.741
1965.0	13.465
1966.0	13.423
1967.0	12.426
1968.0	13.402
1969.0	13.780
1970.0	14.123
1971.0	12.890
1972.0	12.148
1973.0	11.121
1974.0	11.410
1975.0	12.302
1976.0	13.515
1977.0	13.305
1978.0	12.760
1979.0	12.011
1980.0	12.326
1981.0	11.969
1982.0	13.245
1983.0	14.004
1984.0	14.133
1985.0	13.329
1986.0	12.843
1987.0	12.830
1988.0	13.643
1989.0	14.451
1990.0	13.483
1991.0	11.933
1992.0	11.179
1993.0	11.882
1994.0	13.062
1995.0	13.573
1996.0	13.060
1997.0	12.815
1998.0	12.608
1999.0	13.454
2000.0	13.427
