[SUMMARY]
Software Information
Software Name:	UVProbe
Version:	2.43
Mode:	Normal Mode

Data Information
Data is:	Original
Analyst:	
Date/Time:	23/02/2023 18:32:06
Comments:	

Instrument Information
Instrument Name:	SolidSpec3700
Instrument Type:	SolidSpec-3700 Series
Model (S/N):	SolidSpec3700 ( A11085100264CZ )

[METHOD]
[Measurement Properties]
Wavelength Range (nm.):	285,00 to 1600,00
Scan Speed:	Medium
Sampling Interval:	1,0
Auto Sampling Interval:	Disabled
Scan Mode:	Single

[Sample Preparation Properties]
Weight:	
Volume:	
Dilution:	
Path Length:	
Additional Information:	

[Instrument Properties]
Instrument Type:	SolidSpec-3700 Series
Measuring Mode:	Transmittance
Slit Width:	5,0 nm
Time Constant:	1,0 sec.
Source Lamp:	Auto
Light Source Change Wavelength:	282,00 nm
Detector Unit:	Integral Sphere
Detector Change Wavelength:	900,00 nm  1650,00 nm
Grating Change Wavelength:	800,00 nm
S/R Exchange:	Normal
Detector Lock:	Auto
Slit Program:	Fixed
Beam Mode:	Double
Stair Correction:	Disable

[Attachment Properties]
Attachment:	X-Y Stage
Sequence File:	Positions.xys

[Operation]
Threshold:	0,0010000
Points:	4
InterPolate:	Disabled
Average:	Disabled

[DATA]
Wavelength	Data
285.0	42.913
286.0	43.616
287.0	44.759
288.0	45.707
289.0	46.585
290.0	47.212
291.0	47.953
292.0	48.846
293.0	49.779
294.0	50.572
295.0	51.282
296.0	52.017
297.0	52.783
298.0	53.500
299.0	54.099
300.0	54.810
301.0	55.389
302.0	56.087
303.0	56.517
304.0	57.094
305.0	57.607
306.0	58.187
307.0	58.683
308.0	58.992
309.0	59.274
310.0	59.469
311.0	59.742
312.0	59.918
313.0	60.028
314.0	60.198
315.0	60.270
316.0	60.432
317.0	60.428
318.0	60.490
319.0	60.423
320.0	60.513
321.0	60.598
322.0	60.618
323.0	60.455
324.0	60.156
325.0	59.866
326.0	59.596
327.0	59.392
328.0	59.260
329.0	59.138
330.0	58.913
331.0	58.693
332.0	58.389
333.0	58.253
334.0	57.895
335.0	57.647
336.0	57.279
337.0	57.116
338.0	56.822
339.0	56.511
340.0	56.186
341.0	55.934
342.0	55.733
343.0	55.360
344.0	54.899
345.0	54.447
346.0	54.116
347.0	53.703
348.0	53.322
349.0	52.946
350.0	52.559
351.0	52.046
352.0	51.514
353.0	51.071
354.0	50.661
355.0	50.135
356.0	49.478
357.0	48.793
358.0	48.257
359.0	47.795
360.0	47.282
361.0	46.643
362.0	46.006
363.0	45.448
364.0	44.946
365.0	44.412
366.0	43.838
367.0	43.308
368.0	42.779
369.0	42.245
370.0	41.712
371.0	41.256
372.0	40.873
373.0	40.503
374.0	40.193
375.0	39.924
376.0	39.667
377.0	39.451
378.0	39.271
379.0	39.123
380.0	39.016
381.0	38.891
382.0	38.892
383.0	38.937
384.0	39.023
385.0	39.072
386.0	39.126
387.0	39.277
388.0	39.398
389.0	39.558
390.0	39.690
391.0	39.894
392.0	40.090
393.0	40.268
394.0	40.409
395.0	40.563
396.0	40.708
397.0	40.863
398.0	41.011
399.0	41.137
400.0	41.269
401.0	41.356
402.0	41.454
403.0	41.513
404.0	41.593
405.0	41.674
406.0	41.739
407.0	41.808
408.0	41.832
409.0	41.919
410.0	41.951
411.0	42.028
412.0	42.066
413.0	42.105
414.0	42.181
415.0	42.240
416.0	42.340
417.0	42.377
418.0	42.434
419.0	42.478
420.0	42.531
421.0	42.582
422.0	42.675
423.0	42.761
424.0	42.846
425.0	42.830
426.0	42.836
427.0	42.783
428.0	42.752
429.0	42.679
430.0	42.614
431.0	42.497
432.0	42.344
433.0	42.209
434.0	42.048
435.0	41.866
436.0	41.645
437.0	41.457
438.0	41.292
439.0	41.122
440.0	40.878
441.0	40.647
442.0	40.372
443.0	40.165
444.0	39.922
445.0	39.689
446.0	39.451
447.0	39.220
448.0	39.001
449.0	38.776
450.0	38.564
451.0	38.378
452.0	38.224
453.0	38.071
454.0	37.900
455.0	37.756
456.0	37.616
457.0	37.517
458.0	37.421
459.0	37.329
460.0	37.241
461.0	37.178
462.0	37.140
463.0	37.118
464.0	37.098
465.0	37.101
466.0	37.092
467.0	37.086
468.0	37.088
469.0	37.105
470.0	37.130
471.0	37.159
472.0	37.234
473.0	37.306
474.0	37.389
475.0	37.452
476.0	37.563
477.0	37.685
478.0	37.805
479.0	37.889
480.0	38.004
481.0	38.142
482.0	38.318
483.0	38.478
484.0	38.649
485.0	38.812
486.0	38.977
487.0	39.155
488.0	39.333
489.0	39.542
490.0	39.745
491.0	39.982
492.0	40.198
493.0	40.464
494.0	40.686
495.0	40.932
496.0	41.141
497.0	41.402
498.0	41.681
499.0	41.960
500.0	42.248
501.0	42.549
502.0	42.893
503.0	43.222
504.0	43.559
505.0	43.879
506.0	44.201
507.0	44.515
508.0	44.881
509.0	45.254
510.0	45.614
511.0	45.948
512.0	46.285
513.0	46.607
514.0	46.948
515.0	47.303
516.0	47.707
517.0	48.088
518.0	48.427
519.0	48.770
520.0	49.101
521.0	49.482
522.0	49.851
523.0	50.217
524.0	50.547
525.0	50.833
526.0	51.149
527.0	51.466
528.0	51.827
529.0	52.163
530.0	52.474
531.0	52.771
532.0	53.056
533.0	53.346
534.0	53.605
535.0	53.833
536.0	54.120
537.0	54.383
538.0	54.640
539.0	54.823
540.0	54.994
541.0	55.216
542.0	55.413
543.0	55.620
544.0	55.782
545.0	55.929
546.0	56.077
547.0	56.203
548.0	56.359
549.0	56.461
550.0	56.559
551.0	56.649
552.0	56.728
553.0	56.812
554.0	56.867
555.0	56.942
556.0	56.965
557.0	57.002
558.0	57.044
559.0	57.094
560.0	57.093
561.0	57.085
562.0	57.074
563.0	57.051
564.0	57.032
565.0	57.000
566.0	57.001
567.0	56.976
568.0	56.916
569.0	56.880
570.0	56.823
571.0	56.798
572.0	56.713
573.0	56.628
574.0	56.531
575.0	56.437
576.0	56.362
577.0	56.261
578.0	56.175
579.0	56.063
580.0	55.954
581.0	55.831
582.0	55.721
583.0	55.599
584.0	55.485
585.0	55.356
586.0	55.267
587.0	55.162
588.0	55.034
589.0	54.906
590.0	54.800
591.0	54.679
592.0	54.530
593.0	54.351
594.0	54.194
595.0	54.080
596.0	53.952
597.0	53.798
598.0	53.612
599.0	53.443
600.0	53.290
601.0	53.135
602.0	52.949
603.0	52.791
604.0	52.655
605.0	52.503
606.0	52.328
607.0	52.127
608.0	51.958
609.0	51.816
610.0	51.661
611.0	51.532
612.0	51.360
613.0	51.182
614.0	50.989
615.0	50.810
616.0	50.675
617.0	50.503
618.0	50.336
619.0	50.135
620.0	49.951
621.0	49.776
622.0	49.613
623.0	49.428
624.0	49.230
625.0	49.025
626.0	48.869
627.0	48.719
628.0	48.563
629.0	48.374
630.0	48.196
631.0	48.008
632.0	47.801
633.0	47.660
634.0	47.520
635.0	47.363
636.0	47.187
637.0	47.008
638.0	46.862
639.0	46.652
640.0	46.464
641.0	46.323
642.0	46.170
643.0	45.996
644.0	45.832
645.0	45.672
646.0	45.505
647.0	45.294
648.0	45.132
649.0	44.965
650.0	44.843
651.0	44.663
652.0	44.519
653.0	44.337
654.0	44.186
655.0	44.037
656.0	43.878
657.0	43.746
658.0	43.566
659.0	43.426
660.0	43.250
661.0	43.125
662.0	43.008
663.0	42.898
664.0	42.763
665.0	42.609
666.0	42.446
667.0	42.293
668.0	42.131
669.0	41.999
670.0	41.894
671.0	41.765
672.0	41.647
673.0	41.533
674.0	41.398
675.0	41.241
676.0	41.068
677.0	40.964
678.0	40.848
679.0	40.730
680.0	40.617
681.0	40.550
682.0	40.462
683.0	40.394
684.0	40.245
685.0	40.145
686.0	40.010
687.0	39.925
688.0	39.852
689.0	39.793
690.0	39.730
691.0	39.610
692.0	39.506
693.0	39.362
694.0	39.319
695.0	39.207
696.0	39.164
697.0	39.022
698.0	38.954
699.0	38.872
700.0	38.833
701.0	38.751
702.0	38.687
703.0	38.589
704.0	38.492
705.0	38.420
706.0	38.360
707.0	38.316
708.0	38.211
709.0	38.172
710.0	38.103
711.0	38.066
712.0	37.931
713.0	37.846
714.0	37.743
715.0	37.671
716.0	37.597
717.0	37.549
718.0	37.478
719.0	37.399
720.0	37.297
721.0	37.264
722.0	37.206
723.0	37.136
724.0	37.042
725.0	36.918
726.0	36.880
727.0	36.796
728.0	36.792
729.0	36.721
730.0	36.634
731.0	36.522
732.0	36.402
733.0	36.337
734.0	36.298
735.0	36.213
736.0	36.200
737.0	36.136
738.0	36.051
739.0	35.917
740.0	35.762
741.0	35.706
742.0	35.613
743.0	35.504
744.0	35.420
745.0	35.371
746.0	35.331
747.0	35.282
748.0	35.179
749.0	35.133
750.0	34.994
751.0	34.914
752.0	34.834
753.0	34.744
754.0	34.671
755.0	34.536
756.0	34.481
757.0	34.418
758.0	34.386
759.0	34.329
760.0	34.306
761.0	34.235
762.0	34.190
763.0	34.110
764.0	34.089
765.0	34.024
766.0	33.950
767.0	33.901
768.0	33.829
769.0	33.752
770.0	33.625
771.0	33.560
772.0	33.458
773.0	33.437
774.0	33.412
775.0	33.386
776.0	33.327
777.0	33.260
778.0	33.251
779.0	33.221
780.0	33.209
781.0	33.118
782.0	33.071
783.0	32.965
784.0	32.955
785.0	32.893
786.0	32.889
787.0	32.843
788.0	32.775
789.0	32.732
790.0	32.770
791.0	32.781
792.0	32.700
793.0	32.603
794.0	32.503
795.0	32.574
796.0	32.510
797.0	32.548
798.0	32.497
799.0	32.496
800.0	32.414
801.0	32.308
802.0	32.220
803.0	32.185
804.0	32.151
805.0	32.108
806.0	32.047
807.0	31.994
808.0	31.964
809.0	31.972
810.0	31.929
811.0	31.893
812.0	31.824
813.0	31.803
814.0	31.768
815.0	31.745
816.0	31.693
817.0	31.661
818.0	31.592
819.0	31.530
820.0	31.456
821.0	31.465
822.0	31.400
823.0	31.369
824.0	31.282
825.0	31.300
826.0	31.225
827.0	31.207
828.0	31.135
829.0	31.091
830.0	31.035
831.0	31.041
832.0	30.992
833.0	30.890
834.0	30.734
835.0	30.718
836.0	30.775
837.0	30.811
838.0	30.752
839.0	30.633
840.0	30.555
841.0	30.536
842.0	30.520
843.0	30.484
844.0	30.449
845.0	30.388
846.0	30.302
847.0	30.248
848.0	30.215
849.0	30.262
850.0	30.217
851.0	30.193
852.0	30.114
853.0	30.076
854.0	29.967
855.0	29.983
856.0	29.923
857.0	29.907
858.0	29.815
859.0	29.842
860.0	29.917
861.0	29.854
862.0	29.805
863.0	29.760
864.0	29.855
865.0	29.889
866.0	29.752
867.0	29.595
868.0	29.444
869.0	29.434
870.0	29.441
871.0	29.308
872.0	29.383
873.0	29.339
874.0	29.671
875.0	29.886
876.0	29.907
877.0	29.683
878.0	29.586
879.0	29.741
880.0	30.001
881.0	29.884
882.0	29.921
883.0	29.848
884.0	29.710
885.0	29.751
886.0	29.612
887.0	29.977
888.0	29.994
889.0	30.052
890.0	29.690
891.0	29.595
892.0	29.647
893.0	29.819
894.0	29.827
895.0	30.028
896.0	30.043
897.0	29.964
898.0	30.253
899.0	30.347
900.0	30.464
901.0	29.992
902.0	29.785
903.0	29.792
904.0	29.789
905.0	29.902
906.0	29.899
907.0	29.951
908.0	30.004
909.0	30.082
910.0	30.129
911.0	30.160
912.0	30.182
913.0	30.137
914.0	30.246
915.0	30.219
916.0	30.349
917.0	30.401
918.0	30.389
919.0	30.392
920.0	30.342
921.0	30.410
922.0	30.393
923.0	30.455
924.0	30.527
925.0	30.624
926.0	30.610
927.0	30.643
928.0	30.633
929.0	30.661
930.0	30.674
931.0	30.718
932.0	30.784
933.0	30.817
934.0	30.843
935.0	30.868
936.0	30.903
937.0	30.960
938.0	31.039
939.0	31.108
940.0	31.142
941.0	31.080
942.0	31.098
943.0	31.133
944.0	31.225
945.0	31.271
946.0	31.307
947.0	31.359
948.0	31.393
949.0	31.384
950.0	31.423
951.0	31.425
952.0	31.506
953.0	31.516
954.0	31.557
955.0	31.579
956.0	31.644
957.0	31.700
958.0	31.708
959.0	31.711
960.0	31.745
961.0	31.799
962.0	31.866
963.0	31.871
964.0	31.918
965.0	31.922
966.0	31.983
967.0	31.995
968.0	32.040
969.0	32.056
970.0	32.124
971.0	32.164
972.0	32.192
973.0	32.186
974.0	32.213
975.0	32.249
976.0	32.284
977.0	32.317
978.0	32.357
979.0	32.424
980.0	32.475
981.0	32.510
982.0	32.492
983.0	32.514
984.0	32.542
985.0	32.629
986.0	32.650
987.0	32.685
988.0	32.707
989.0	32.751
990.0	32.808
991.0	32.843
992.0	32.865
993.0	32.876
994.0	32.909
995.0	32.959
996.0	32.974
997.0	32.997
998.0	33.030
999.0	33.085
1000.0	33.099
1001.0	33.152
1002.0	33.162
1003.0	33.212
1004.0	33.217
1005.0	33.277
1006.0	33.331
1007.0	33.378
1008.0	33.395
1009.0	33.423
1010.0	33.438
1011.0	33.464
1012.0	33.494
1013.0	33.533
1014.0	33.589
1015.0	33.627
1016.0	33.658
1017.0	33.708
1018.0	33.737
1019.0	33.777
1020.0	33.789
1021.0	33.801
1022.0	33.828
1023.0	33.864
1024.0	33.904
1025.0	33.936
1026.0	33.958
1027.0	33.983
1028.0	34.010
1029.0	34.028
1030.0	34.068
1031.0	34.090
1032.0	34.116
1033.0	34.129
1034.0	34.157
1035.0	34.199
1036.0	34.233
1037.0	34.261
1038.0	34.291
1039.0	34.340
1040.0	34.397
1041.0	34.433
1042.0	34.463
1043.0	34.473
1044.0	34.497
1045.0	34.509
1046.0	34.536
1047.0	34.575
1048.0	34.627
1049.0	34.660
1050.0	34.700
1051.0	34.719
1052.0	34.729
1053.0	34.746
1054.0	34.766
1055.0	34.831
1056.0	34.851
1057.0	34.899
1058.0	34.911
1059.0	34.945
1060.0	34.974
1061.0	35.034
1062.0	35.068
1063.0	35.071
1064.0	35.089
1065.0	35.110
1066.0	35.158
1067.0	35.168
1068.0	35.200
1069.0	35.224
1070.0	35.279
1071.0	35.310
1072.0	35.351
1073.0	35.367
1074.0	35.403
1075.0	35.417
1076.0	35.450
1077.0	35.478
1078.0	35.527
1079.0	35.567
1080.0	35.606
1081.0	35.618
1082.0	35.632
1083.0	35.652
1084.0	35.693
1085.0	35.732
1086.0	35.779
1087.0	35.798
1088.0	35.822
1089.0	35.850
1090.0	35.889
1091.0	35.922
1092.0	35.952
1093.0	35.980
1094.0	35.996
1095.0	35.995
1096.0	36.009
1097.0	36.048
1098.0	36.078
1099.0	36.112
1100.0	36.141
1101.0	36.183
1102.0	36.218
1103.0	36.233
1104.0	36.241
1105.0	36.263
1106.0	36.301
1107.0	36.352
1108.0	36.368
1109.0	36.402
1110.0	36.419
1111.0	36.458
1112.0	36.457
1113.0	36.473
1114.0	36.491
1115.0	36.530
1116.0	36.575
1117.0	36.599
1118.0	36.616
1119.0	36.621
1120.0	36.638
1121.0	36.666
1122.0	36.688
1123.0	36.709
1124.0	36.725
1125.0	36.757
1126.0	36.797
1127.0	36.816
1128.0	36.845
1129.0	36.821
1130.0	36.847
1131.0	36.847
1132.0	36.888
1133.0	36.895
1134.0	36.922
1135.0	36.945
1136.0	36.969
1137.0	36.967
1138.0	36.988
1139.0	36.994
1140.0	37.032
1141.0	37.045
1142.0	37.058
1143.0	37.066
1144.0	37.072
1145.0	37.108
1146.0	37.120
1147.0	37.135
1148.0	37.138
1149.0	37.136
1150.0	37.143
1151.0	37.152
1152.0	37.181
1153.0	37.192
1154.0	37.205
1155.0	37.198
1156.0	37.204
1157.0	37.204
1158.0	37.216
1159.0	37.228
1160.0	37.236
1161.0	37.250
1162.0	37.251
1163.0	37.247
1164.0	37.245
1165.0	37.233
1166.0	37.240
1167.0	37.252
1168.0	37.270
1169.0	37.263
1170.0	37.260
1171.0	37.249
1172.0	37.264
1173.0	37.245
1174.0	37.251
1175.0	37.245
1176.0	37.245
1177.0	37.263
1178.0	37.258
1179.0	37.266
1180.0	37.248
1181.0	37.236
1182.0	37.225
1183.0	37.211
1184.0	37.199
1185.0	37.186
1186.0	37.181
1187.0	37.183
1188.0	37.187
1189.0	37.178
1190.0	37.169
1191.0	37.150
1192.0	37.150
1193.0	37.134
1194.0	37.123
1195.0	37.103
1196.0	37.100
1197.0	37.084
1198.0	37.049
1199.0	37.030
1200.0	37.011
1201.0	37.006
1202.0	36.990
1203.0	36.985
1204.0	36.965
1205.0	36.934
1206.0	36.924
1207.0	36.902
1208.0	36.907
1209.0	36.879
1210.0	36.868
1211.0	36.834
1212.0	36.810
1213.0	36.797
1214.0	36.764
1215.0	36.733
1216.0	36.700
1217.0	36.687
1218.0	36.667
1219.0	36.655
1220.0	36.628
1221.0	36.623
1222.0	36.583
1223.0	36.550
1224.0	36.528
1225.0	36.529
1226.0	36.514
1227.0	36.466
1228.0	36.425
1229.0	36.399
1230.0	36.371
1231.0	36.346
1232.0	36.317
1233.0	36.295
1234.0	36.264
1235.0	36.234
1236.0	36.215
1237.0	36.162
1238.0	36.130
1239.0	36.087
1240.0	36.069
1241.0	36.034
1242.0	36.015
1243.0	35.997
1244.0	35.976
1245.0	35.930
1246.0	35.900
1247.0	35.859
1248.0	35.829
1249.0	35.797
1250.0	35.762
1251.0	35.714
1252.0	35.663
1253.0	35.635
1254.0	35.619
1255.0	35.606
1256.0	35.560
1257.0	35.531
1258.0	35.482
1259.0	35.450
1260.0	35.388
1261.0	35.370
1262.0	35.328
1263.0	35.312
1264.0	35.260
1265.0	35.236
1266.0	35.200
1267.0	35.180
1268.0	35.161
1269.0	35.125
1270.0	35.090
1271.0	35.038
1272.0	35.012
1273.0	34.989
1274.0	34.972
1275.0	34.943
1276.0	34.904
1277.0	34.851
1278.0	34.793
1279.0	34.763
1280.0	34.735
1281.0	34.719
1282.0	34.649
1283.0	34.607
1284.0	34.575
1285.0	34.565
1286.0	34.545
1287.0	34.509
1288.0	34.464
1289.0	34.430
1290.0	34.386
1291.0	34.366
1292.0	34.322
1293.0	34.288
1294.0	34.242
1295.0	34.208
1296.0	34.174
1297.0	34.132
1298.0	34.095
1299.0	34.056
1300.0	34.038
1301.0	33.999
1302.0	33.961
1303.0	33.897
1304.0	33.850
1305.0	33.816
1306.0	33.766
1307.0	33.721
1308.0	33.668
1309.0	33.646
1310.0	33.603
1311.0	33.581
1312.0	33.519
1313.0	33.486
1314.0	33.438
1315.0	33.420
1316.0	33.389
1317.0	33.341
1318.0	33.285
1319.0	33.236
1320.0	33.233
1321.0	33.211
1322.0	33.214
1323.0	33.151
1324.0	33.110
1325.0	33.043
1326.0	33.032
1327.0	32.994
1328.0	32.942
1329.0	32.876
1330.0	32.833
1331.0	32.822
1332.0	32.789
1333.0	32.764
1334.0	32.722
1335.0	32.709
1336.0	32.670
1337.0	32.621
1338.0	32.563
1339.0	32.538
1340.0	32.498
1341.0	32.461
1342.0	32.401
1343.0	32.374
1344.0	32.317
1345.0	32.280
1346.0	32.227
1347.0	32.219
1348.0	32.179
1349.0	32.148
1350.0	32.089
1351.0	32.057
1352.0	32.010
1353.0	31.962
1354.0	31.904
1355.0	31.848
1356.0	31.797
1357.0	31.769
1358.0	31.729
1359.0	31.708
1360.0	31.634
1361.0	31.611
1362.0	31.565
1363.0	31.566
1364.0	31.532
1365.0	31.518
1366.0	31.496
1367.0	31.468
1368.0	31.442
1369.0	31.410
1370.0	31.344
1371.0	31.292
1372.0	31.244
1373.0	31.257
1374.0	31.214
1375.0	31.184
1376.0	31.139
1377.0	31.144
1378.0	31.110
1379.0	31.059
1380.0	31.007
1381.0	30.950
1382.0	30.892
1383.0	30.836
1384.0	30.796
1385.0	30.792
1386.0	30.758
1387.0	30.744
1388.0	30.706
1389.0	30.683
1390.0	30.624
1391.0	30.589
1392.0	30.522
1393.0	30.477
1394.0	30.417
1395.0	30.418
1396.0	30.385
1397.0	30.372
1398.0	30.318
1399.0	30.313
1400.0	30.285
1401.0	30.265
1402.0	30.201
1403.0	30.164
1404.0	30.119
1405.0	30.093
1406.0	30.073
1407.0	30.062
1408.0	30.024
1409.0	29.978
1410.0	29.962
1411.0	29.966
1412.0	29.947
1413.0	29.911
1414.0	29.893
1415.0	29.880
1416.0	29.866
1417.0	29.872
1418.0	29.829
1419.0	29.777
1420.0	29.729
1421.0	29.723
1422.0	29.698
1423.0	29.676
1424.0	29.652
1425.0	29.643
1426.0	29.612
1427.0	29.607
1428.0	29.589
1429.0	29.572
1430.0	29.520
1431.0	29.480
1432.0	29.434
1433.0	29.421
1434.0	29.415
1435.0	29.411
1436.0	29.389
1437.0	29.355
1438.0	29.332
1439.0	29.314
1440.0	29.307
1441.0	29.271
1442.0	29.233
1443.0	29.194
1444.0	29.187
1445.0	29.181
1446.0	29.164
1447.0	29.104
1448.0	29.078
1449.0	29.035
1450.0	29.038
1451.0	29.001
1452.0	29.013
1453.0	28.996
1454.0	28.986
1455.0	28.961
1456.0	28.950
1457.0	28.903
1458.0	28.880
1459.0	28.830
1460.0	28.812
1461.0	28.766
1462.0	28.771
1463.0	28.744
1464.0	28.721
1465.0	28.687
1466.0	28.677
1467.0	28.637
1468.0	28.604
1469.0	28.610
1470.0	28.588
1471.0	28.583
1472.0	28.534
1473.0	28.529
1474.0	28.470
1475.0	28.481
1476.0	28.480
1477.0	28.487
1478.0	28.415
1479.0	28.387
1480.0	28.374
1481.0	28.338
1482.0	28.295
1483.0	28.243
1484.0	28.243
1485.0	28.256
1486.0	28.263
1487.0	28.243
1488.0	28.218
1489.0	28.187
1490.0	28.154
1491.0	28.133
1492.0	28.102
1493.0	28.089
1494.0	28.049
1495.0	28.044
1496.0	28.036
1497.0	28.020
1498.0	27.981
1499.0	27.978
1500.0	27.945
1501.0	27.935
1502.0	27.880
1503.0	27.864
1504.0	27.850
1505.0	27.857
1506.0	27.826
1507.0	27.792
1508.0	27.766
1509.0	27.755
1510.0	27.762
1511.0	27.712
1512.0	27.668
1513.0	27.624
1514.0	27.637
1515.0	27.646
1516.0	27.619
1517.0	27.583
1518.0	27.575
1519.0	27.566
1520.0	27.572
1521.0	27.533
1522.0	27.514
1523.0	27.464
1524.0	27.479
1525.0	27.446
1526.0	27.444
1527.0	27.432
1528.0	27.416
1529.0	27.397
1530.0	27.322
1531.0	27.314
1532.0	27.289
1533.0	27.288
1534.0	27.253
1535.0	27.207
1536.0	27.186
1537.0	27.187
1538.0	27.208
1539.0	27.197
1540.0	27.152
1541.0	27.124
1542.0	27.078
1543.0	27.107
1544.0	27.112
1545.0	27.108
1546.0	27.053
1547.0	27.033
1548.0	27.038
1549.0	27.028
1550.0	26.983
1551.0	26.948
1552.0	26.934
1553.0	26.916
1554.0	26.878
1555.0	26.856
1556.0	26.867
1557.0	26.889
1558.0	26.869
1559.0	26.830
1560.0	26.800
1561.0	26.797
1562.0	26.781
1563.0	26.772
1564.0	26.744
1565.0	26.716
1566.0	26.709
1567.0	26.714
1568.0	26.692
1569.0	26.655
1570.0	26.625
1571.0	26.626
1572.0	26.614
1573.0	26.576
1574.0	26.563
1575.0	26.562
1576.0	26.572
1577.0	26.542
1578.0	26.506
1579.0	26.477
1580.0	26.500
1581.0	26.499
1582.0	26.489
1583.0	26.469
1584.0	26.450
1585.0	26.407
1586.0	26.356
1587.0	26.299
1588.0	26.314
1589.0	26.291
1590.0	26.294
1591.0	26.272
1592.0	26.270
1593.0	26.281
1594.0	26.257
1595.0	26.230
1596.0	26.190
1597.0	26.164
1598.0	26.183
1599.0	26.171
1600.0	26.169
