[SUMMARY]
Software Information
Software Name:	UVProbe
Version:	2.43
Mode:	Normal Mode

Data Information
Data is:	Original
Analyst:	
Date/Time:	24/02/2023 12:41:05
Comments:	

Instrument Information
Instrument Name:	SolidSpec3700
Instrument Type:	SolidSpec-3700 Series
Model (S/N):	SolidSpec3700 ( A11085100264CZ )

[METHOD]
[Measurement Properties]
Wavelength Range (nm.):	285,00 to 1600,00
Scan Speed:	Medium
Sampling Interval:	1,0
Auto Sampling Interval:	Disabled
Scan Mode:	Single

[Sample Preparation Properties]
Weight:	
Volume:	
Dilution:	
Path Length:	
Additional Information:	

[Instrument Properties]
Instrument Type:	SolidSpec-3700 Series
Measuring Mode:	Reflectance
Slit Width:	5,0 nm
Time Constant:	1,0 sec.
Source Lamp:	Auto
Light Source Change Wavelength:	282,00 nm
Detector Unit:	Integral Sphere
Detector Change Wavelength:	900,00 nm  1650,00 nm
Grating Change Wavelength:	800,00 nm
S/R Exchange:	Inverse
Detector Lock:	Auto
Slit Program:	Fixed
Beam Mode:	Double
Stair Correction:	Disable

[Attachment Properties]
Attachment:	X-Y Stage
Sequence File:	Positions.xys

[Operation]
Threshold:	0,0010000
Points:	4
InterPolate:	Disabled
Average:	Disabled

[DATA]
Wavelength	Data
285.0	4.769
286.0	4.780
287.0	4.765
288.0	4.815
289.0	4.885
290.0	4.943
291.0	5.005
292.0	5.012
293.0	5.073
294.0	5.125
295.0	5.170
296.0	5.224
297.0	5.265
298.0	5.337
299.0	5.350
300.0	5.349
301.0	5.331
302.0	5.334
303.0	5.373
304.0	5.389
305.0	5.417
306.0	5.401
307.0	5.384
308.0	5.398
309.0	5.399
310.0	5.424
311.0	5.401
312.0	5.393
313.0	5.368
314.0	5.367
315.0	5.356
316.0	5.355
317.0	5.332
318.0	5.339
319.0	5.319
320.0	5.296
321.0	5.260
322.0	5.226
323.0	5.211
324.0	5.222
325.0	5.231
326.0	5.223
327.0	5.194
328.0	5.160
329.0	5.139
330.0	5.124
331.0	5.132
332.0	5.127
333.0	5.119
334.0	5.099
335.0	5.088
336.0	5.086
337.0	5.054
338.0	5.065
339.0	5.037
340.0	5.030
341.0	4.988
342.0	4.980
343.0	4.995
344.0	4.991
345.0	4.979
346.0	4.952
347.0	4.948
348.0	4.941
349.0	4.933
350.0	4.927
351.0	4.906
352.0	4.884
353.0	4.848
354.0	4.832
355.0	4.814
356.0	4.795
357.0	4.765
358.0	4.750
359.0	4.736
360.0	4.720
361.0	4.686
362.0	4.682
363.0	4.682
364.0	4.687
365.0	4.673
366.0	4.661
367.0	4.650
368.0	4.637
369.0	4.616
370.0	4.606
371.0	4.610
372.0	4.619
373.0	4.628
374.0	4.630
375.0	4.638
376.0	4.638
377.0	4.646
378.0	4.663
379.0	4.678
380.0	4.691
381.0	4.700
382.0	4.714
383.0	4.726
384.0	4.747
385.0	4.773
386.0	4.787
387.0	4.788
388.0	4.794
389.0	4.811
390.0	4.832
391.0	4.842
392.0	4.862
393.0	4.872
394.0	4.881
395.0	4.874
396.0	4.877
397.0	4.877
398.0	4.881
399.0	4.875
400.0	4.874
401.0	4.868
402.0	4.873
403.0	4.869
404.0	4.869
405.0	4.850
406.0	4.845
407.0	4.822
408.0	4.813
409.0	4.807
410.0	4.802
411.0	4.796
412.0	4.779
413.0	4.770
414.0	4.764
415.0	4.751
416.0	4.737
417.0	4.715
418.0	4.712
419.0	4.699
420.0	4.682
421.0	4.654
422.0	4.634
423.0	4.616
424.0	4.596
425.0	4.573
426.0	4.554
427.0	4.535
428.0	4.512
429.0	4.483
430.0	4.457
431.0	4.434
432.0	4.408
433.0	4.379
434.0	4.347
435.0	4.322
436.0	4.293
437.0	4.273
438.0	4.253
439.0	4.238
440.0	4.220
441.0	4.192
442.0	4.170
443.0	4.149
444.0	4.131
445.0	4.110
446.0	4.092
447.0	4.082
448.0	4.073
449.0	4.071
450.0	4.072
451.0	4.071
452.0	4.064
453.0	4.052
454.0	4.053
455.0	4.055
456.0	4.058
457.0	4.061
458.0	4.063
459.0	4.065
460.0	4.064
461.0	4.073
462.0	4.082
463.0	4.088
464.0	4.089
465.0	4.092
466.0	4.098
467.0	4.111
468.0	4.123
469.0	4.131
470.0	4.131
471.0	4.145
472.0	4.157
473.0	4.168
474.0	4.175
475.0	4.185
476.0	4.188
477.0	4.194
478.0	4.201
479.0	4.218
480.0	4.222
481.0	4.228
482.0	4.238
483.0	4.251
484.0	4.258
485.0	4.259
486.0	4.267
487.0	4.282
488.0	4.297
489.0	4.302
490.0	4.294
491.0	4.296
492.0	4.298
493.0	4.316
494.0	4.318
495.0	4.330
496.0	4.328
497.0	4.329
498.0	4.329
499.0	4.335
500.0	4.344
501.0	4.347
502.0	4.356
503.0	4.364
504.0	4.367
505.0	4.366
506.0	4.366
507.0	4.372
508.0	4.375
509.0	4.374
510.0	4.378
511.0	4.381
512.0	4.381
513.0	4.379
514.0	4.374
515.0	4.387
516.0	4.391
517.0	4.388
518.0	4.378
519.0	4.370
520.0	4.365
521.0	4.357
522.0	4.358
523.0	4.360
524.0	4.357
525.0	4.362
526.0	4.347
527.0	4.336
528.0	4.312
529.0	4.314
530.0	4.309
531.0	4.301
532.0	4.290
533.0	4.273
534.0	4.266
535.0	4.247
536.0	4.233
537.0	4.206
538.0	4.189
539.0	4.174
540.0	4.173
541.0	4.161
542.0	4.143
543.0	4.118
544.0	4.099
545.0	4.083
546.0	4.062
547.0	4.040
548.0	4.016
549.0	4.000
550.0	3.981
551.0	3.960
552.0	3.927
553.0	3.905
554.0	3.881
555.0	3.861
556.0	3.833
557.0	3.811
558.0	3.793
559.0	3.766
560.0	3.736
561.0	3.708
562.0	3.686
563.0	3.665
564.0	3.639
565.0	3.612
566.0	3.585
567.0	3.554
568.0	3.522
569.0	3.493
570.0	3.468
571.0	3.443
572.0	3.416
573.0	3.386
574.0	3.361
575.0	3.337
576.0	3.315
577.0	3.283
578.0	3.254
579.0	3.227
580.0	3.214
581.0	3.190
582.0	3.172
583.0	3.149
584.0	3.129
585.0	3.107
586.0	3.084
587.0	3.067
588.0	3.042
589.0	3.022
590.0	3.000
591.0	2.986
592.0	2.972
593.0	2.962
594.0	2.947
595.0	2.930
596.0	2.910
597.0	2.899
598.0	2.884
599.0	2.875
600.0	2.864
601.0	2.854
602.0	2.843
603.0	2.833
604.0	2.824
605.0	2.811
606.0	2.799
607.0	2.789
608.0	2.787
609.0	2.783
610.0	2.784
611.0	2.785
612.0	2.780
613.0	2.776
614.0	2.769
615.0	2.765
616.0	2.770
617.0	2.767
618.0	2.772
619.0	2.769
620.0	2.774
621.0	2.777
622.0	2.784
623.0	2.787
624.0	2.799
625.0	2.804
626.0	2.809
627.0	2.812
628.0	2.816
629.0	2.832
630.0	2.844
631.0	2.858
632.0	2.865
633.0	2.872
634.0	2.872
635.0	2.884
636.0	2.896
637.0	2.915
638.0	2.928
639.0	2.948
640.0	2.967
641.0	2.994
642.0	3.008
643.0	3.033
644.0	3.047
645.0	3.065
646.0	3.080
647.0	3.092
648.0	3.108
649.0	3.121
650.0	3.149
651.0	3.174
652.0	3.208
653.0	3.234
654.0	3.260
655.0	3.272
656.0	3.288
657.0	3.311
658.0	3.338
659.0	3.362
660.0	3.384
661.0	3.399
662.0	3.418
663.0	3.434
664.0	3.463
665.0	3.494
666.0	3.528
667.0	3.559
668.0	3.582
669.0	3.610
670.0	3.646
671.0	3.681
672.0	3.721
673.0	3.751
674.0	3.782
675.0	3.825
676.0	3.856
677.0	3.895
678.0	3.914
679.0	3.941
680.0	3.984
681.0	4.021
682.0	4.059
683.0	4.085
684.0	4.109
685.0	4.139
686.0	4.167
687.0	4.201
688.0	4.229
689.0	4.243
690.0	4.274
691.0	4.306
692.0	4.351
693.0	4.381
694.0	4.425
695.0	4.458
696.0	4.484
697.0	4.508
698.0	4.529
699.0	4.557
700.0	4.585
701.0	4.625
702.0	4.657
703.0	4.686
704.0	4.706
705.0	4.736
706.0	4.756
707.0	4.784
708.0	4.826
709.0	4.867
710.0	4.909
711.0	4.941
712.0	4.971
713.0	4.997
714.0	5.017
715.0	5.059
716.0	5.093
717.0	5.151
718.0	5.162
719.0	5.207
720.0	5.237
721.0	5.288
722.0	5.314
723.0	5.346
724.0	5.393
725.0	5.419
726.0	5.441
727.0	5.457
728.0	5.502
729.0	5.544
730.0	5.581
731.0	5.603
732.0	5.636
733.0	5.677
734.0	5.747
735.0	5.790
736.0	5.836
737.0	5.851
738.0	5.882
739.0	5.916
740.0	5.948
741.0	5.989
742.0	6.023
743.0	6.067
744.0	6.102
745.0	6.149
746.0	6.201
747.0	6.242
748.0	6.258
749.0	6.289
750.0	6.317
751.0	6.372
752.0	6.408
753.0	6.429
754.0	6.459
755.0	6.488
756.0	6.550
757.0	6.594
758.0	6.648
759.0	6.690
760.0	6.731
761.0	6.765
762.0	6.802
763.0	6.844
764.0	6.893
765.0	6.922
766.0	6.949
767.0	6.970
768.0	7.028
769.0	7.081
770.0	7.115
771.0	7.122
772.0	7.155
773.0	7.194
774.0	7.232
775.0	7.253
776.0	7.292
777.0	7.308
778.0	7.327
779.0	7.353
780.0	7.403
781.0	7.448
782.0	7.459
783.0	7.484
784.0	7.524
785.0	7.561
786.0	7.594
787.0	7.610
788.0	7.652
789.0	7.712
790.0	7.759
791.0	7.779
792.0	7.814
793.0	7.832
794.0	7.886
795.0	7.879
796.0	7.920
797.0	7.951
798.0	7.984
799.0	8.036
800.0	8.091
801.0	8.177
802.0	8.236
803.0	8.263
804.0	8.304
805.0	8.337
806.0	8.393
807.0	8.429
808.0	8.450
809.0	8.472
810.0	8.504
811.0	8.535
812.0	8.574
813.0	8.609
814.0	8.649
815.0	8.689
816.0	8.710
817.0	8.745
818.0	8.781
819.0	8.836
820.0	8.868
821.0	8.904
822.0	8.915
823.0	8.946
824.0	8.976
825.0	9.023
826.0	9.072
827.0	9.115
828.0	9.144
829.0	9.156
830.0	9.175
831.0	9.193
832.0	9.254
833.0	9.281
834.0	9.328
835.0	9.379
836.0	9.432
837.0	9.446
838.0	9.466
839.0	9.502
840.0	9.545
841.0	9.553
842.0	9.573
843.0	9.627
844.0	9.647
845.0	9.685
846.0	9.737
847.0	9.792
848.0	9.837
849.0	9.837
850.0	9.842
851.0	9.875
852.0	9.905
853.0	9.980
854.0	9.940
855.0	9.956
856.0	9.944
857.0	9.956
858.0	9.993
859.0	10.073
860.0	10.137
861.0	10.160
862.0	10.091
863.0	10.099
864.0	10.154
865.0	10.247
866.0	10.265
867.0	10.235
868.0	10.290
869.0	10.348
870.0	10.422
871.0	10.418
872.0	10.364
873.0	10.439
874.0	10.400
875.0	10.491
876.0	10.435
877.0	10.532
878.0	10.619
879.0	10.752
880.0	10.746
881.0	10.703
882.0	10.734
883.0	10.719
884.0	10.734
885.0	10.549
886.0	10.612
887.0	10.683
888.0	10.763
889.0	10.701
890.0	10.662
891.0	10.640
892.0	10.820
893.0	10.795
894.0	10.656
895.0	10.496
896.0	10.466
897.0	10.704
898.0	10.783
899.0	10.841
900.0	10.942
901.0	11.104
902.0	11.224
903.0	11.422
904.0	11.467
905.0	11.573
906.0	11.458
907.0	11.361
908.0	11.418
909.0	11.380
910.0	11.428
911.0	11.438
912.0	11.510
913.0	11.568
914.0	11.613
915.0	11.626
916.0	11.677
917.0	11.564
918.0	11.584
919.0	11.595
920.0	11.708
921.0	11.746
922.0	11.765
923.0	11.704
924.0	11.667
925.0	11.594
926.0	11.637
927.0	11.609
928.0	11.612
929.0	11.577
930.0	11.618
931.0	11.740
932.0	11.808
933.0	11.819
934.0	11.749
935.0	11.673
936.0	11.675
937.0	11.689
938.0	11.766
939.0	11.800
940.0	11.809
941.0	11.785
942.0	11.733
943.0	11.770
944.0	11.793
945.0	11.847
946.0	11.848
947.0	11.838
948.0	11.877
949.0	11.921
950.0	11.952
951.0	11.919
952.0	11.916
953.0	11.943
954.0	11.982
955.0	11.961
956.0	11.973
957.0	11.947
958.0	12.007
959.0	12.006
960.0	12.060
961.0	12.012
962.0	12.037
963.0	12.042
964.0	12.056
965.0	12.086
966.0	12.071
967.0	12.073
968.0	12.057
969.0	12.089
970.0	12.115
971.0	12.187
972.0	12.190
973.0	12.211
974.0	12.164
975.0	12.165
976.0	12.153
977.0	12.161
978.0	12.170
979.0	12.204
980.0	12.234
981.0	12.241
982.0	12.261
983.0	12.270
984.0	12.275
985.0	12.240
986.0	12.217
987.0	12.230
988.0	12.281
989.0	12.300
990.0	12.327
991.0	12.321
992.0	12.347
993.0	12.352
994.0	12.383
995.0	12.391
996.0	12.376
997.0	12.352
998.0	12.357
999.0	12.401
1000.0	12.384
1001.0	12.351
1002.0	12.357
1003.0	12.383
1004.0	12.446
1005.0	12.428
1006.0	12.423
1007.0	12.410
1008.0	12.426
1009.0	12.456
1010.0	12.487
1011.0	12.472
1012.0	12.466
1013.0	12.443
1014.0	12.483
1015.0	12.495
1016.0	12.519
1017.0	12.534
1018.0	12.547
1019.0	12.550
1020.0	12.535
1021.0	12.570
1022.0	12.573
1023.0	12.602
1024.0	12.566
1025.0	12.567
1026.0	12.573
1027.0	12.602
1028.0	12.609
1029.0	12.594
1030.0	12.593
1031.0	12.606
1032.0	12.613
1033.0	12.634
1034.0	12.639
1035.0	12.655
1036.0	12.658
1037.0	12.672
1038.0	12.710
1039.0	12.688
1040.0	12.698
1041.0	12.696
1042.0	12.728
1043.0	12.724
1044.0	12.690
1045.0	12.712
1046.0	12.738
1047.0	12.773
1048.0	12.752
1049.0	12.755
1050.0	12.741
1051.0	12.751
1052.0	12.740
1053.0	12.752
1054.0	12.777
1055.0	12.800
1056.0	12.802
1057.0	12.769
1058.0	12.777
1059.0	12.785
1060.0	12.813
1061.0	12.804
1062.0	12.819
1063.0	12.825
1064.0	12.843
1065.0	12.874
1066.0	12.861
1067.0	12.874
1068.0	12.867
1069.0	12.909
1070.0	12.909
1071.0	12.932
1072.0	12.935
1073.0	12.936
1074.0	12.947
1075.0	12.957
1076.0	12.965
1077.0	12.947
1078.0	12.960
1079.0	12.970
1080.0	12.994
1081.0	13.022
1082.0	13.042
1083.0	13.027
1084.0	13.019
1085.0	13.025
1086.0	13.061
1087.0	13.064
1088.0	13.063
1089.0	13.059
1090.0	13.068
1091.0	13.079
1092.0	13.090
1093.0	13.092
1094.0	13.078
1095.0	13.072
1096.0	13.101
1097.0	13.135
1098.0	13.148
1099.0	13.131
1100.0	13.141
1101.0	13.161
1102.0	13.169
1103.0	13.182
1104.0	13.175
1105.0	13.186
1106.0	13.192
1107.0	13.209
1108.0	13.216
1109.0	13.226
1110.0	13.238
1111.0	13.257
1112.0	13.235
1113.0	13.245
1114.0	13.271
1115.0	13.298
1116.0	13.305
1117.0	13.301
1118.0	13.340
1119.0	13.361
1120.0	13.360
1121.0	13.353
1122.0	13.367
1123.0	13.382
1124.0	13.398
1125.0	13.402
1126.0	13.418
1127.0	13.428
1128.0	13.454
1129.0	13.472
1130.0	13.477
1131.0	13.490
1132.0	13.504
1133.0	13.522
1134.0	13.528
1135.0	13.542
1136.0	13.568
1137.0	13.583
1138.0	13.608
1139.0	13.622
1140.0	13.652
1141.0	13.653
1142.0	13.661
1143.0	13.656
1144.0	13.683
1145.0	13.715
1146.0	13.748
1147.0	13.766
1148.0	13.768
1149.0	13.782
1150.0	13.793
1151.0	13.818
1152.0	13.837
1153.0	13.851
1154.0	13.871
1155.0	13.909
1156.0	13.945
1157.0	13.977
1158.0	13.977
1159.0	13.996
1160.0	14.005
1161.0	14.013
1162.0	14.030
1163.0	14.066
1164.0	14.096
1165.0	14.119
1166.0	14.134
1167.0	14.164
1168.0	14.178
1169.0	14.185
1170.0	14.204
1171.0	14.234
1172.0	14.269
1173.0	14.298
1174.0	14.323
1175.0	14.338
1176.0	14.356
1177.0	14.381
1178.0	14.421
1179.0	14.451
1180.0	14.462
1181.0	14.475
1182.0	14.496
1183.0	14.537
1184.0	14.576
1185.0	14.614
1186.0	14.627
1187.0	14.655
1188.0	14.664
1189.0	14.694
1190.0	14.702
1191.0	14.739
1192.0	14.774
1193.0	14.823
1194.0	14.832
1195.0	14.877
1196.0	14.901
1197.0	14.956
1198.0	14.981
1199.0	15.006
1200.0	15.005
1201.0	15.031
1202.0	15.067
1203.0	15.119
1204.0	15.155
1205.0	15.182
1206.0	15.231
1207.0	15.251
1208.0	15.278
1209.0	15.280
1210.0	15.319
1211.0	15.346
1212.0	15.389
1213.0	15.407
1214.0	15.444
1215.0	15.481
1216.0	15.519
1217.0	15.563
1218.0	15.602
1219.0	15.641
1220.0	15.675
1221.0	15.715
1222.0	15.751
1223.0	15.784
1224.0	15.805
1225.0	15.847
1226.0	15.879
1227.0	15.903
1228.0	15.914
1229.0	15.950
1230.0	15.993
1231.0	16.051
1232.0	16.090
1233.0	16.128
1234.0	16.167
1235.0	16.202
1236.0	16.254
1237.0	16.278
1238.0	16.309
1239.0	16.350
1240.0	16.381
1241.0	16.417
1242.0	16.442
1243.0	16.488
1244.0	16.533
1245.0	16.567
1246.0	16.603
1247.0	16.629
1248.0	16.666
1249.0	16.699
1250.0	16.732
1251.0	16.778
1252.0	16.813
1253.0	16.862
1254.0	16.903
1255.0	16.938
1256.0	16.985
1257.0	17.020
1258.0	17.064
1259.0	17.096
1260.0	17.121
1261.0	17.162
1262.0	17.205
1263.0	17.245
1264.0	17.288
1265.0	17.313
1266.0	17.349
1267.0	17.382
1268.0	17.422
1269.0	17.463
1270.0	17.526
1271.0	17.568
1272.0	17.599
1273.0	17.613
1274.0	17.622
1275.0	17.654
1276.0	17.688
1277.0	17.742
1278.0	17.768
1279.0	17.804
1280.0	17.839
1281.0	17.887
1282.0	17.913
1283.0	17.946
1284.0	17.998
1285.0	18.029
1286.0	18.069
1287.0	18.091
1288.0	18.121
1289.0	18.167
1290.0	18.196
1291.0	18.255
1292.0	18.274
1293.0	18.318
1294.0	18.348
1295.0	18.398
1296.0	18.436
1297.0	18.474
1298.0	18.501
1299.0	18.546
1300.0	18.606
1301.0	18.661
1302.0	18.697
1303.0	18.731
1304.0	18.769
1305.0	18.828
1306.0	18.856
1307.0	18.911
1308.0	18.947
1309.0	18.994
1310.0	19.019
1311.0	19.067
1312.0	19.115
1313.0	19.159
1314.0	19.174
1315.0	19.217
1316.0	19.277
1317.0	19.343
1318.0	19.380
1319.0	19.423
1320.0	19.447
1321.0	19.497
1322.0	19.508
1323.0	19.571
1324.0	19.613
1325.0	19.661
1326.0	19.694
1327.0	19.731
1328.0	19.776
1329.0	19.806
1330.0	19.829
1331.0	19.838
1332.0	19.869
1333.0	19.952
1334.0	20.027
1335.0	20.071
1336.0	20.071
1337.0	20.087
1338.0	20.139
1339.0	20.177
1340.0	20.259
1341.0	20.287
1342.0	20.342
1343.0	20.368
1344.0	20.402
1345.0	20.424
1346.0	20.437
1347.0	20.499
1348.0	20.535
1349.0	20.589
1350.0	20.621
1351.0	20.660
1352.0	20.680
1353.0	20.692
1354.0	20.729
1355.0	20.763
1356.0	20.817
1357.0	20.873
1358.0	20.918
1359.0	20.931
1360.0	20.942
1361.0	20.966
1362.0	21.006
1363.0	21.049
1364.0	21.072
1365.0	21.147
1366.0	21.207
1367.0	21.272
1368.0	21.308
1369.0	21.348
1370.0	21.405
1371.0	21.426
1372.0	21.455
1373.0	21.501
1374.0	21.548
1375.0	21.590
1376.0	21.623
1377.0	21.676
1378.0	21.748
1379.0	21.796
1380.0	21.828
1381.0	21.837
1382.0	21.894
1383.0	21.960
1384.0	22.033
1385.0	22.051
1386.0	22.100
1387.0	22.136
1388.0	22.225
1389.0	22.298
1390.0	22.362
1391.0	22.376
1392.0	22.421
1393.0	22.484
1394.0	22.551
1395.0	22.597
1396.0	22.634
1397.0	22.692
1398.0	22.724
1399.0	22.800
1400.0	22.865
1401.0	22.947
1402.0	23.010
1403.0	23.073
1404.0	23.104
1405.0	23.152
1406.0	23.185
1407.0	23.246
1408.0	23.281
1409.0	23.320
1410.0	23.386
1411.0	23.435
1412.0	23.471
1413.0	23.489
1414.0	23.539
1415.0	23.621
1416.0	23.655
1417.0	23.679
1418.0	23.709
1419.0	23.761
1420.0	23.797
1421.0	23.856
1422.0	23.916
1423.0	23.979
1424.0	24.008
1425.0	24.034
1426.0	24.055
1427.0	24.091
1428.0	24.115
1429.0	24.161
1430.0	24.186
1431.0	24.267
1432.0	24.322
1433.0	24.366
1434.0	24.355
1435.0	24.367
1436.0	24.387
1437.0	24.408
1438.0	24.457
1439.0	24.496
1440.0	24.545
1441.0	24.554
1442.0	24.585
1443.0	24.642
1444.0	24.681
1445.0	24.724
1446.0	24.732
1447.0	24.753
1448.0	24.793
1449.0	24.839
1450.0	24.871
1451.0	24.869
1452.0	24.861
1453.0	24.882
1454.0	24.897
1455.0	24.930
1456.0	24.920
1457.0	24.966
1458.0	24.999
1459.0	25.062
1460.0	25.072
1461.0	25.098
1462.0	25.104
1463.0	25.146
1464.0	25.193
1465.0	25.219
1466.0	25.235
1467.0	25.230
1468.0	25.293
1469.0	25.293
1470.0	25.288
1471.0	25.270
1472.0	25.299
1473.0	25.311
1474.0	25.321
1475.0	25.334
1476.0	25.381
1477.0	25.396
1478.0	25.429
1479.0	25.438
1480.0	25.480
1481.0	25.470
1482.0	25.493
1483.0	25.459
1484.0	25.502
1485.0	25.478
1486.0	25.518
1487.0	25.504
1488.0	25.543
1489.0	25.531
1490.0	25.526
1491.0	25.533
1492.0	25.591
1493.0	25.638
1494.0	25.668
1495.0	25.669
1496.0	25.669
1497.0	25.657
1498.0	25.698
1499.0	25.737
1500.0	25.783
1501.0	25.769
1502.0	25.808
1503.0	25.782
1504.0	25.830
1505.0	25.825
1506.0	25.840
1507.0	25.819
1508.0	25.813
1509.0	25.829
1510.0	25.848
1511.0	25.877
1512.0	25.907
1513.0	25.869
1514.0	25.848
1515.0	25.846
1516.0	25.904
1517.0	25.908
1518.0	25.946
1519.0	25.983
1520.0	26.003
1521.0	25.983
1522.0	25.975
1523.0	26.021
1524.0	26.053
1525.0	26.083
1526.0	26.062
1527.0	26.091
1528.0	26.107
1529.0	26.124
1530.0	26.107
1531.0	26.079
1532.0	26.118
1533.0	26.095
1534.0	26.124
1535.0	26.092
1536.0	26.145
1537.0	26.141
1538.0	26.178
1539.0	26.211
1540.0	26.232
1541.0	26.313
1542.0	26.360
1543.0	26.386
1544.0	26.346
1545.0	26.334
1546.0	26.319
1547.0	26.340
1548.0	26.369
1549.0	26.424
1550.0	26.392
1551.0	26.350
1552.0	26.351
1553.0	26.387
1554.0	26.445
1555.0	26.480
1556.0	26.506
1557.0	26.491
1558.0	26.495
1559.0	26.529
1560.0	26.578
1561.0	26.613
1562.0	26.620
1563.0	26.612
1564.0	26.621
1565.0	26.666
1566.0	26.698
1567.0	26.703
1568.0	26.684
1569.0	26.673
1570.0	26.707
1571.0	26.750
1572.0	26.815
1573.0	26.820
1574.0	26.805
1575.0	26.783
1576.0	26.784
1577.0	26.819
1578.0	26.838
1579.0	26.838
1580.0	26.812
1581.0	26.833
1582.0	26.824
1583.0	26.818
1584.0	26.817
1585.0	26.873
1586.0	26.921
1587.0	26.986
1588.0	27.001
1589.0	27.038
1590.0	27.019
1591.0	27.024
1592.0	27.026
1593.0	27.060
1594.0	27.081
1595.0	27.117
1596.0	27.115
1597.0	27.108
1598.0	27.109
1599.0	27.080
1600.0	27.075
