[SUMMARY]
Software Information
Software Name:	UVProbe
Version:	2.43
Mode:	Normal Mode

Data Information
Data is:	Original
Analyst:	
Date/Time:	24/02/2023 12:29:04
Comments:	

Instrument Information
Instrument Name:	SolidSpec3700
Instrument Type:	SolidSpec-3700 Series
Model (S/N):	SolidSpec3700 ( A11085100264CZ )

[METHOD]
[Measurement Properties]
Wavelength Range (nm.):	285,00 to 1600,00
Scan Speed:	Medium
Sampling Interval:	1,0
Auto Sampling Interval:	Disabled
Scan Mode:	Single

[Sample Preparation Properties]
Weight:	
Volume:	
Dilution:	
Path Length:	
Additional Information:	

[Instrument Properties]
Instrument Type:	SolidSpec-3700 Series
Measuring Mode:	Reflectance
Slit Width:	5,0 nm
Time Constant:	1,0 sec.
Source Lamp:	Auto
Light Source Change Wavelength:	282,00 nm
Detector Unit:	Integral Sphere
Detector Change Wavelength:	900,00 nm  1650,00 nm
Grating Change Wavelength:	800,00 nm
S/R Exchange:	Inverse
Detector Lock:	Auto
Slit Program:	Fixed
Beam Mode:	Double
Stair Correction:	Disable

[Attachment Properties]
Attachment:	X-Y Stage
Sequence File:	Positions.xys

[Operation]
Threshold:	0,0010000
Points:	4
InterPolate:	Disabled
Average:	Disabled

[DATA]
Wavelength	Data
285.0	6.055
286.0	6.069
287.0	6.108
288.0	6.122
289.0	6.170
290.0	6.207
291.0	6.335
292.0	6.346
293.0	6.352
294.0	6.286
295.0	6.307
296.0	6.342
297.0	6.407
298.0	6.429
299.0	6.438
300.0	6.424
301.0	6.385
302.0	6.414
303.0	6.403
304.0	6.454
305.0	6.431
306.0	6.420
307.0	6.433
308.0	6.408
309.0	6.401
310.0	6.336
311.0	6.328
312.0	6.334
313.0	6.362
314.0	6.361
315.0	6.348
316.0	6.303
317.0	6.285
318.0	6.260
319.0	6.267
320.0	6.272
321.0	6.284
322.0	6.277
323.0	6.271
324.0	6.240
325.0	6.223
326.0	6.201
327.0	6.202
328.0	6.202
329.0	6.200
330.0	6.134
331.0	6.131
332.0	6.130
333.0	6.177
334.0	6.190
335.0	6.184
336.0	6.174
337.0	6.153
338.0	6.137
339.0	6.137
340.0	6.127
341.0	6.118
342.0	6.102
343.0	6.085
344.0	6.102
345.0	6.115
346.0	6.128
347.0	6.109
348.0	6.074
349.0	6.071
350.0	6.057
351.0	6.063
352.0	6.054
353.0	6.035
354.0	6.026
355.0	6.002
356.0	6.002
357.0	5.972
358.0	5.941
359.0	5.918
360.0	5.896
361.0	5.888
362.0	5.868
363.0	5.853
364.0	5.843
365.0	5.801
366.0	5.783
367.0	5.725
368.0	5.702
369.0	5.665
370.0	5.635
371.0	5.605
372.0	5.586
373.0	5.567
374.0	5.544
375.0	5.498
376.0	5.486
377.0	5.444
378.0	5.423
379.0	5.376
380.0	5.341
381.0	5.290
382.0	5.255
383.0	5.219
384.0	5.192
385.0	5.167
386.0	5.145
387.0	5.109
388.0	5.073
389.0	5.030
390.0	4.992
391.0	4.955
392.0	4.926
393.0	4.910
394.0	4.875
395.0	4.836
396.0	4.789
397.0	4.749
398.0	4.721
399.0	4.672
400.0	4.638
401.0	4.598
402.0	4.572
403.0	4.533
404.0	4.487
405.0	4.440
406.0	4.396
407.0	4.359
408.0	4.325
409.0	4.281
410.0	4.235
411.0	4.188
412.0	4.145
413.0	4.110
414.0	4.070
415.0	4.032
416.0	3.988
417.0	3.955
418.0	3.913
419.0	3.860
420.0	3.814
421.0	3.772
422.0	3.733
423.0	3.688
424.0	3.649
425.0	3.611
426.0	3.569
427.0	3.534
428.0	3.497
429.0	3.464
430.0	3.419
431.0	3.378
432.0	3.340
433.0	3.297
434.0	3.270
435.0	3.219
436.0	3.194
437.0	3.157
438.0	3.142
439.0	3.107
440.0	3.083
441.0	3.056
442.0	3.035
443.0	3.009
444.0	2.982
445.0	2.956
446.0	2.932
447.0	2.911
448.0	2.893
449.0	2.880
450.0	2.867
451.0	2.854
452.0	2.841
453.0	2.828
454.0	2.823
455.0	2.821
456.0	2.822
457.0	2.820
458.0	2.819
459.0	2.816
460.0	2.822
461.0	2.834
462.0	2.850
463.0	2.864
464.0	2.875
465.0	2.902
466.0	2.921
467.0	2.947
468.0	2.972
469.0	3.007
470.0	3.041
471.0	3.075
472.0	3.114
473.0	3.161
474.0	3.212
475.0	3.261
476.0	3.316
477.0	3.372
478.0	3.436
479.0	3.499
480.0	3.570
481.0	3.638
482.0	3.711
483.0	3.780
484.0	3.858
485.0	3.942
486.0	4.033
487.0	4.125
488.0	4.216
489.0	4.302
490.0	4.394
491.0	4.497
492.0	4.611
493.0	4.723
494.0	4.829
495.0	4.944
496.0	5.058
497.0	5.179
498.0	5.290
499.0	5.423
500.0	5.552
501.0	5.692
502.0	5.821
503.0	5.965
504.0	6.100
505.0	6.240
506.0	6.372
507.0	6.515
508.0	6.655
509.0	6.800
510.0	6.945
511.0	7.089
512.0	7.231
513.0	7.377
514.0	7.524
515.0	7.668
516.0	7.810
517.0	7.946
518.0	8.083
519.0	8.232
520.0	8.387
521.0	8.543
522.0	8.682
523.0	8.821
524.0	8.985
525.0	9.142
526.0	9.310
527.0	9.460
528.0	9.621
529.0	9.772
530.0	9.925
531.0	10.075
532.0	10.237
533.0	10.389
534.0	10.546
535.0	10.694
536.0	10.838
537.0	10.989
538.0	11.135
539.0	11.290
540.0	11.430
541.0	11.564
542.0	11.703
543.0	11.837
544.0	11.980
545.0	12.122
546.0	12.255
547.0	12.388
548.0	12.512
549.0	12.653
550.0	12.787
551.0	12.913
552.0	13.031
553.0	13.153
554.0	13.263
555.0	13.380
556.0	13.489
557.0	13.612
558.0	13.727
559.0	13.842
560.0	13.927
561.0	14.026
562.0	14.117
563.0	14.235
564.0	14.329
565.0	14.419
566.0	14.508
567.0	14.593
568.0	14.688
569.0	14.788
570.0	14.888
571.0	14.971
572.0	15.042
573.0	15.129
574.0	15.235
575.0	15.336
576.0	15.419
577.0	15.506
578.0	15.598
579.0	15.689
580.0	15.788
581.0	15.883
582.0	16.011
583.0	16.107
584.0	16.203
585.0	16.278
586.0	16.362
587.0	16.461
588.0	16.554
589.0	16.652
590.0	16.735
591.0	16.822
592.0	16.905
593.0	16.987
594.0	17.069
595.0	17.171
596.0	17.259
597.0	17.329
598.0	17.388
599.0	17.449
600.0	17.517
601.0	17.580
602.0	17.632
603.0	17.688
604.0	17.710
605.0	17.745
606.0	17.775
607.0	17.804
608.0	17.830
609.0	17.842
610.0	17.866
611.0	17.887
612.0	17.902
613.0	17.905
614.0	17.897
615.0	17.898
616.0	17.912
617.0	17.924
618.0	17.909
619.0	17.886
620.0	17.851
621.0	17.838
622.0	17.816
623.0	17.800
624.0	17.758
625.0	17.737
626.0	17.732
627.0	17.734
628.0	17.743
629.0	17.736
630.0	17.734
631.0	17.719
632.0	17.707
633.0	17.692
634.0	17.704
635.0	17.705
636.0	17.727
637.0	17.725
638.0	17.764
639.0	17.795
640.0	17.835
641.0	17.839
642.0	17.875
643.0	17.899
644.0	17.958
645.0	17.986
646.0	18.036
647.0	18.083
648.0	18.143
649.0	18.196
650.0	18.248
651.0	18.286
652.0	18.334
653.0	18.378
654.0	18.419
655.0	18.477
656.0	18.514
657.0	18.576
658.0	18.598
659.0	18.651
660.0	18.705
661.0	18.727
662.0	18.749
663.0	18.742
664.0	18.764
665.0	18.775
666.0	18.799
667.0	18.826
668.0	18.817
669.0	18.795
670.0	18.779
671.0	18.771
672.0	18.758
673.0	18.707
674.0	18.649
675.0	18.584
676.0	18.520
677.0	18.447
678.0	18.344
679.0	18.269
680.0	18.204
681.0	18.125
682.0	18.000
683.0	17.881
684.0	17.799
685.0	17.725
686.0	17.616
687.0	17.495
688.0	17.378
689.0	17.265
690.0	17.160
691.0	17.085
692.0	17.035
693.0	16.993
694.0	16.960
695.0	16.920
696.0	16.925
697.0	16.906
698.0	16.928
699.0	16.948
700.0	17.044
701.0	17.115
702.0	17.226
703.0	17.299
704.0	17.435
705.0	17.565
706.0	17.727
707.0	17.880
708.0	18.030
709.0	18.184
710.0	18.344
711.0	18.543
712.0	18.733
713.0	18.932
714.0	19.083
715.0	19.274
716.0	19.455
717.0	19.666
718.0	19.841
719.0	20.009
720.0	20.165
721.0	20.324
722.0	20.457
723.0	20.618
724.0	20.767
725.0	20.943
726.0	21.019
727.0	21.130
728.0	21.190
729.0	21.311
730.0	21.381
731.0	21.501
732.0	21.532
733.0	21.597
734.0	21.627
735.0	21.709
736.0	21.780
737.0	21.829
738.0	21.863
739.0	21.836
740.0	21.862
741.0	21.892
742.0	21.939
743.0	21.962
744.0	21.964
745.0	22.005
746.0	21.996
747.0	21.966
748.0	21.938
749.0	21.965
750.0	21.999
751.0	22.013
752.0	21.995
753.0	22.035
754.0	22.048
755.0	22.029
756.0	22.005
757.0	22.003
758.0	22.012
759.0	21.961
760.0	21.876
761.0	21.835
762.0	21.814
763.0	21.842
764.0	21.859
765.0	21.874
766.0	21.871
767.0	21.828
768.0	21.800
769.0	21.726
770.0	21.712
771.0	21.713
772.0	21.757
773.0	21.745
774.0	21.706
775.0	21.710
776.0	21.718
777.0	21.737
778.0	21.657
779.0	21.600
780.0	21.522
781.0	21.512
782.0	21.482
783.0	21.447
784.0	21.444
785.0	21.439
786.0	21.488
787.0	21.461
788.0	21.442
789.0	21.396
790.0	21.353
791.0	21.271
792.0	21.275
793.0	21.265
794.0	21.340
795.0	21.304
796.0	21.286
797.0	21.252
798.0	21.231
799.0	21.200
800.0	21.138
801.0	21.136
802.0	21.108
803.0	21.108
804.0	21.040
805.0	21.029
806.0	20.999
807.0	20.995
808.0	20.969
809.0	20.959
810.0	20.913
811.0	20.898
812.0	20.847
813.0	20.828
814.0	20.779
815.0	20.763
816.0	20.750
817.0	20.732
818.0	20.702
819.0	20.674
820.0	20.658
821.0	20.652
822.0	20.622
823.0	20.592
824.0	20.568
825.0	20.533
826.0	20.527
827.0	20.502
828.0	20.490
829.0	20.463
830.0	20.447
831.0	20.418
832.0	20.388
833.0	20.347
834.0	20.335
835.0	20.324
836.0	20.302
837.0	20.295
838.0	20.264
839.0	20.237
840.0	20.193
841.0	20.160
842.0	20.192
843.0	20.181
844.0	20.139
845.0	20.063
846.0	20.055
847.0	20.093
848.0	20.055
849.0	19.964
850.0	19.880
851.0	19.836
852.0	19.839
853.0	19.819
854.0	19.785
855.0	19.732
856.0	19.659
857.0	19.636
858.0	19.729
859.0	19.795
860.0	19.790
861.0	19.699
862.0	19.669
863.0	19.659
864.0	19.587
865.0	19.573
866.0	19.522
867.0	19.364
868.0	19.257
869.0	19.320
870.0	19.436
871.0	19.446
872.0	19.314
873.0	19.349
874.0	19.228
875.0	19.198
876.0	19.115
877.0	19.256
878.0	19.314
879.0	19.199
880.0	19.174
881.0	19.087
882.0	19.370
883.0	19.334
884.0	19.489
885.0	19.588
886.0	19.581
887.0	19.457
888.0	19.388
889.0	19.235
890.0	19.079
891.0	18.582
892.0	18.915
893.0	19.066
894.0	19.147
895.0	18.992
896.0	19.087
897.0	19.442
898.0	19.338
899.0	18.844
900.0	18.928
901.0	19.041
902.0	19.546
903.0	19.433
904.0	19.584
905.0	19.628
906.0	19.666
907.0	19.636
908.0	19.704
909.0	19.621
910.0	19.470
911.0	19.344
912.0	19.279
913.0	19.354
914.0	19.328
915.0	19.368
916.0	19.383
917.0	19.361
918.0	19.384
919.0	19.294
920.0	19.228
921.0	19.286
922.0	19.283
923.0	19.405
924.0	19.310
925.0	19.334
926.0	19.223
927.0	19.250
928.0	19.205
929.0	19.256
930.0	19.189
931.0	19.206
932.0	19.092
933.0	19.004
934.0	18.926
935.0	18.911
936.0	18.976
937.0	18.999
938.0	19.018
939.0	18.967
940.0	18.947
941.0	18.955
942.0	18.975
943.0	19.023
944.0	19.014
945.0	18.959
946.0	18.908
947.0	18.846
948.0	18.847
949.0	18.814
950.0	18.810
951.0	18.752
952.0	18.705
953.0	18.734
954.0	18.759
955.0	18.740
956.0	18.692
957.0	18.707
958.0	18.720
959.0	18.702
960.0	18.620
961.0	18.612
962.0	18.635
963.0	18.629
964.0	18.612
965.0	18.590
966.0	18.617
967.0	18.632
968.0	18.622
969.0	18.583
970.0	18.567
971.0	18.571
972.0	18.568
973.0	18.514
974.0	18.498
975.0	18.491
976.0	18.518
977.0	18.518
978.0	18.510
979.0	18.448
980.0	18.421
981.0	18.408
982.0	18.417
983.0	18.381
984.0	18.379
985.0	18.355
986.0	18.340
987.0	18.292
988.0	18.279
989.0	18.264
990.0	18.273
991.0	18.288
992.0	18.293
993.0	18.260
994.0	18.197
995.0	18.180
996.0	18.183
997.0	18.182
998.0	18.148
999.0	18.129
1000.0	18.115
1001.0	18.088
1002.0	18.054
1003.0	18.043
1004.0	18.041
1005.0	18.042
1006.0	18.037
1007.0	18.062
1008.0	18.053
1009.0	18.033
1010.0	18.002
1011.0	17.978
1012.0	17.951
1013.0	17.927
1014.0	17.896
1015.0	17.888
1016.0	17.870
1017.0	17.886
1018.0	17.871
1019.0	17.839
1020.0	17.803
1021.0	17.781
1022.0	17.800
1023.0	17.815
1024.0	17.821
1025.0	17.799
1026.0	17.754
1027.0	17.724
1028.0	17.698
1029.0	17.706
1030.0	17.688
1031.0	17.661
1032.0	17.652
1033.0	17.628
1034.0	17.597
1035.0	17.596
1036.0	17.601
1037.0	17.610
1038.0	17.542
1039.0	17.536
1040.0	17.529
1041.0	17.542
1042.0	17.535
1043.0	17.534
1044.0	17.535
1045.0	17.522
1046.0	17.491
1047.0	17.463
1048.0	17.423
1049.0	17.438
1050.0	17.414
1051.0	17.420
1052.0	17.362
1053.0	17.349
1054.0	17.316
1055.0	17.323
1056.0	17.348
1057.0	17.378
1058.0	17.365
1059.0	17.341
1060.0	17.288
1061.0	17.291
1062.0	17.282
1063.0	17.288
1064.0	17.269
1065.0	17.260
1066.0	17.263
1067.0	17.245
1068.0	17.232
1069.0	17.220
1070.0	17.213
1071.0	17.201
1072.0	17.216
1073.0	17.214
1074.0	17.185
1075.0	17.122
1076.0	17.097
1077.0	17.089
1078.0	17.111
1079.0	17.088
1080.0	17.089
1081.0	17.077
1082.0	17.088
1083.0	17.065
1084.0	17.038
1085.0	17.017
1086.0	17.017
1087.0	17.010
1088.0	17.014
1089.0	17.001
1090.0	16.976
1091.0	16.954
1092.0	16.933
1093.0	16.926
1094.0	16.921
1095.0	16.938
1096.0	16.920
1097.0	16.896
1098.0	16.879
1099.0	16.878
1100.0	16.859
1101.0	16.847
1102.0	16.827
1103.0	16.838
1104.0	16.815
1105.0	16.799
1106.0	16.791
1107.0	16.770
1108.0	16.773
1109.0	16.753
1110.0	16.758
1111.0	16.746
1112.0	16.731
1113.0	16.714
1114.0	16.691
1115.0	16.678
1116.0	16.671
1117.0	16.654
1118.0	16.637
1119.0	16.613
1120.0	16.625
1121.0	16.614
1122.0	16.602
1123.0	16.587
1124.0	16.580
1125.0	16.568
1126.0	16.565
1127.0	16.558
1128.0	16.567
1129.0	16.516
1130.0	16.519
1131.0	16.497
1132.0	16.529
1133.0	16.511
1134.0	16.495
1135.0	16.481
1136.0	16.465
1137.0	16.465
1138.0	16.464
1139.0	16.460
1140.0	16.451
1141.0	16.426
1142.0	16.426
1143.0	16.413
1144.0	16.396
1145.0	16.385
1146.0	16.385
1147.0	16.391
1148.0	16.380
1149.0	16.352
1150.0	16.316
1151.0	16.300
1152.0	16.278
1153.0	16.292
1154.0	16.288
1155.0	16.292
1156.0	16.293
1157.0	16.274
1158.0	16.283
1159.0	16.260
1160.0	16.237
1161.0	16.213
1162.0	16.172
1163.0	16.180
1164.0	16.189
1165.0	16.207
1166.0	16.181
1167.0	16.162
1168.0	16.147
1169.0	16.128
1170.0	16.082
1171.0	16.057
1172.0	16.056
1173.0	16.065
1174.0	16.056
1175.0	16.060
1176.0	16.050
1177.0	16.045
1178.0	16.013
1179.0	15.992
1180.0	15.971
1181.0	15.965
1182.0	15.979
1183.0	15.977
1184.0	15.959
1185.0	15.930
1186.0	15.928
1187.0	15.907
1188.0	15.885
1189.0	15.860
1190.0	15.853
1191.0	15.843
1192.0	15.832
1193.0	15.836
1194.0	15.810
1195.0	15.790
1196.0	15.781
1197.0	15.774
1198.0	15.755
1199.0	15.718
1200.0	15.703
1201.0	15.717
1202.0	15.708
1203.0	15.699
1204.0	15.657
1205.0	15.638
1206.0	15.634
1207.0	15.629
1208.0	15.630
1209.0	15.590
1210.0	15.557
1211.0	15.527
1212.0	15.529
1213.0	15.531
1214.0	15.525
1215.0	15.519
1216.0	15.498
1217.0	15.474
1218.0	15.434
1219.0	15.429
1220.0	15.412
1221.0	15.404
1222.0	15.381
1223.0	15.359
1224.0	15.344
1225.0	15.331
1226.0	15.329
1227.0	15.328
1228.0	15.324
1229.0	15.297
1230.0	15.285
1231.0	15.270
1232.0	15.266
1233.0	15.243
1234.0	15.211
1235.0	15.201
1236.0	15.187
1237.0	15.189
1238.0	15.182
1239.0	15.147
1240.0	15.126
1241.0	15.119
1242.0	15.109
1243.0	15.082
1244.0	15.031
1245.0	15.040
1246.0	15.034
1247.0	15.037
1248.0	15.000
1249.0	14.985
1250.0	14.977
1251.0	14.975
1252.0	14.947
1253.0	14.939
1254.0	14.921
1255.0	14.918
1256.0	14.886
1257.0	14.853
1258.0	14.841
1259.0	14.821
1260.0	14.818
1261.0	14.785
1262.0	14.775
1263.0	14.763
1264.0	14.774
1265.0	14.751
1266.0	14.737
1267.0	14.704
1268.0	14.704
1269.0	14.678
1270.0	14.672
1271.0	14.658
1272.0	14.645
1273.0	14.638
1274.0	14.633
1275.0	14.645
1276.0	14.637
1277.0	14.626
1278.0	14.618
1279.0	14.606
1280.0	14.598
1281.0	14.581
1282.0	14.568
1283.0	14.543
1284.0	14.531
1285.0	14.512
1286.0	14.498
1287.0	14.473
1288.0	14.449
1289.0	14.438
1290.0	14.438
1291.0	14.429
1292.0	14.413
1293.0	14.399
1294.0	14.395
1295.0	14.389
1296.0	14.355
1297.0	14.321
1298.0	14.308
1299.0	14.316
1300.0	14.328
1301.0	14.314
1302.0	14.301
1303.0	14.281
1304.0	14.275
1305.0	14.255
1306.0	14.248
1307.0	14.241
1308.0	14.226
1309.0	14.226
1310.0	14.204
1311.0	14.227
1312.0	14.193
1313.0	14.177
1314.0	14.155
1315.0	14.160
1316.0	14.136
1317.0	14.086
1318.0	14.069
1319.0	14.086
1320.0	14.114
1321.0	14.136
1322.0	14.120
1323.0	14.091
1324.0	14.073
1325.0	14.098
1326.0	14.109
1327.0	14.097
1328.0	14.053
1329.0	14.028
1330.0	14.020
1331.0	14.004
1332.0	14.019
1333.0	14.017
1334.0	14.033
1335.0	13.995
1336.0	13.963
1337.0	13.948
1338.0	13.950
1339.0	13.919
1340.0	13.923
1341.0	13.936
1342.0	13.925
1343.0	13.896
1344.0	13.861
1345.0	13.870
1346.0	13.870
1347.0	13.879
1348.0	13.893
1349.0	13.850
1350.0	13.824
1351.0	13.785
1352.0	13.754
1353.0	13.745
1354.0	13.714
1355.0	13.753
1356.0	13.733
1357.0	13.760
1358.0	13.713
1359.0	13.693
1360.0	13.680
1361.0	13.699
1362.0	13.685
1363.0	13.636
1364.0	13.611
1365.0	13.625
1366.0	13.665
1367.0	13.659
1368.0	13.624
1369.0	13.601
1370.0	13.632
1371.0	13.654
1372.0	13.631
1373.0	13.627
1374.0	13.610
1375.0	13.620
1376.0	13.593
1377.0	13.605
1378.0	13.613
1379.0	13.616
1380.0	13.605
1381.0	13.625
1382.0	13.620
1383.0	13.624
1384.0	13.587
1385.0	13.591
1386.0	13.575
1387.0	13.591
1388.0	13.589
1389.0	13.587
1390.0	13.565
1391.0	13.538
1392.0	13.539
1393.0	13.554
1394.0	13.556
1395.0	13.562
1396.0	13.545
1397.0	13.572
1398.0	13.577
1399.0	13.593
1400.0	13.581
1401.0	13.603
1402.0	13.604
1403.0	13.613
1404.0	13.587
1405.0	13.604
1406.0	13.607
1407.0	13.625
1408.0	13.595
1409.0	13.585
1410.0	13.581
1411.0	13.608
1412.0	13.621
1413.0	13.599
1414.0	13.605
1415.0	13.614
1416.0	13.632
1417.0	13.588
1418.0	13.566
1419.0	13.556
1420.0	13.560
1421.0	13.558
1422.0	13.550
1423.0	13.552
1424.0	13.561
1425.0	13.577
1426.0	13.578
1427.0	13.560
1428.0	13.548
1429.0	13.523
1430.0	13.510
1431.0	13.492
1432.0	13.498
1433.0	13.511
1434.0	13.506
1435.0	13.500
1436.0	13.470
1437.0	13.445
1438.0	13.459
1439.0	13.474
1440.0	13.505
1441.0	13.504
1442.0	13.468
1443.0	13.465
1444.0	13.422
1445.0	13.433
1446.0	13.402
1447.0	13.424
1448.0	13.427
1449.0	13.392
1450.0	13.386
1451.0	13.342
1452.0	13.393
1453.0	13.346
1454.0	13.371
1455.0	13.319
1456.0	13.335
1457.0	13.311
1458.0	13.318
1459.0	13.285
1460.0	13.273
1461.0	13.256
1462.0	13.260
1463.0	13.239
1464.0	13.254
1465.0	13.207
1466.0	13.217
1467.0	13.178
1468.0	13.184
1469.0	13.167
1470.0	13.164
1471.0	13.166
1472.0	13.169
1473.0	13.162
1474.0	13.104
1475.0	13.087
1476.0	13.054
1477.0	13.088
1478.0	13.046
1479.0	13.018
1480.0	13.001
1481.0	13.020
1482.0	13.042
1483.0	13.030
1484.0	12.968
1485.0	12.937
1486.0	12.923
1487.0	12.922
1488.0	12.904
1489.0	12.874
1490.0	12.888
1491.0	12.884
1492.0	12.877
1493.0	12.847
1494.0	12.862
1495.0	12.853
1496.0	12.835
1497.0	12.809
1498.0	12.765
1499.0	12.761
1500.0	12.740
1501.0	12.772
1502.0	12.797
1503.0	12.764
1504.0	12.754
1505.0	12.700
1506.0	12.711
1507.0	12.680
1508.0	12.655
1509.0	12.629
1510.0	12.603
1511.0	12.598
1512.0	12.579
1513.0	12.598
1514.0	12.590
1515.0	12.605
1516.0	12.550
1517.0	12.559
1518.0	12.512
1519.0	12.542
1520.0	12.491
1521.0	12.524
1522.0	12.511
1523.0	12.495
1524.0	12.464
1525.0	12.438
1526.0	12.442
1527.0	12.411
1528.0	12.363
1529.0	12.349
1530.0	12.322
1531.0	12.347
1532.0	12.320
1533.0	12.306
1534.0	12.295
1535.0	12.330
1536.0	12.359
1537.0	12.333
1538.0	12.271
1539.0	12.243
1540.0	12.224
1541.0	12.232
1542.0	12.217
1543.0	12.260
1544.0	12.278
1545.0	12.258
1546.0	12.206
1547.0	12.141
1548.0	12.114
1549.0	12.105
1550.0	12.117
1551.0	12.114
1552.0	12.134
1553.0	12.162
1554.0	12.159
1555.0	12.149
1556.0	12.126
1557.0	12.120
1558.0	12.059
1559.0	12.052
1560.0	12.071
1561.0	12.114
1562.0	12.102
1563.0	12.083
1564.0	12.069
1565.0	12.063
1566.0	12.054
1567.0	12.066
1568.0	12.054
1569.0	12.037
1570.0	11.992
1571.0	11.991
1572.0	11.981
1573.0	11.973
1574.0	11.928
1575.0	11.920
1576.0	11.903
1577.0	11.920
1578.0	11.923
1579.0	11.930
1580.0	11.917
1581.0	11.946
1582.0	11.954
1583.0	11.957
1584.0	11.897
1585.0	11.876
1586.0	11.874
1587.0	11.910
1588.0	11.877
1589.0	11.859
1590.0	11.795
1591.0	11.817
1592.0	11.793
1593.0	11.834
1594.0	11.841
1595.0	11.850
1596.0	11.802
1597.0	11.788
1598.0	11.811
1599.0	11.799
1600.0	11.753
