[SUMMARY]
Software Information
Software Name:	UVProbe
Version:	2.43
Mode:	Normal Mode

Data Information
Data is:	Original
Analyst:	
Date/Time:	24/02/2023 12:34:31
Comments:	

Instrument Information
Instrument Name:	SolidSpec3700
Instrument Type:	SolidSpec-3700 Series
Model (S/N):	SolidSpec3700 ( A11085100264CZ )

[METHOD]
[Measurement Properties]
Wavelength Range (nm.):	285,00 to 1600,00
Scan Speed:	Medium
Sampling Interval:	1,0
Auto Sampling Interval:	Disabled
Scan Mode:	Single

[Sample Preparation Properties]
Weight:	
Volume:	
Dilution:	
Path Length:	
Additional Information:	

[Instrument Properties]
Instrument Type:	SolidSpec-3700 Series
Measuring Mode:	Reflectance
Slit Width:	5,0 nm
Time Constant:	1,0 sec.
Source Lamp:	Auto
Light Source Change Wavelength:	282,00 nm
Detector Unit:	Integral Sphere
Detector Change Wavelength:	900,00 nm  1650,00 nm
Grating Change Wavelength:	800,00 nm
S/R Exchange:	Inverse
Detector Lock:	Auto
Slit Program:	Fixed
Beam Mode:	Double
Stair Correction:	Disable

[Attachment Properties]
Attachment:	X-Y Stage
Sequence File:	Positions.xys

[Operation]
Threshold:	0,0010000
Points:	4
InterPolate:	Disabled
Average:	Disabled

[DATA]
Wavelength	Data
285.0	5.327
286.0	5.381
287.0	5.390
288.0	5.479
289.0	5.515
290.0	5.571
291.0	5.610
292.0	5.634
293.0	5.658
294.0	5.663
295.0	5.660
296.0	5.703
297.0	5.740
298.0	5.794
299.0	5.836
300.0	5.866
301.0	5.858
302.0	5.884
303.0	5.913
304.0	5.920
305.0	5.930
306.0	5.907
307.0	5.941
308.0	5.924
309.0	5.933
310.0	5.922
311.0	5.920
312.0	5.927
313.0	5.943
314.0	5.961
315.0	5.982
316.0	5.962
317.0	5.899
318.0	5.849
319.0	5.835
320.0	5.819
321.0	5.822
322.0	5.776
323.0	5.810
324.0	5.785
325.0	5.787
326.0	5.740
327.0	5.725
328.0	5.703
329.0	5.676
330.0	5.650
331.0	5.638
332.0	5.662
333.0	5.629
334.0	5.620
335.0	5.589
336.0	5.596
337.0	5.575
338.0	5.524
339.0	5.490
340.0	5.462
341.0	5.453
342.0	5.422
343.0	5.384
344.0	5.348
345.0	5.328
346.0	5.322
347.0	5.300
348.0	5.280
349.0	5.238
350.0	5.220
351.0	5.190
352.0	5.168
353.0	5.142
354.0	5.115
355.0	5.086
356.0	5.067
357.0	5.035
358.0	5.009
359.0	4.982
360.0	4.958
361.0	4.940
362.0	4.902
363.0	4.887
364.0	4.853
365.0	4.828
366.0	4.801
367.0	4.779
368.0	4.753
369.0	4.715
370.0	4.691
371.0	4.660
372.0	4.626
373.0	4.594
374.0	4.580
375.0	4.558
376.0	4.538
377.0	4.509
378.0	4.494
379.0	4.480
380.0	4.467
381.0	4.463
382.0	4.446
383.0	4.445
384.0	4.428
385.0	4.429
386.0	4.414
387.0	4.404
388.0	4.391
389.0	4.390
390.0	4.394
391.0	4.386
392.0	4.362
393.0	4.338
394.0	4.327
395.0	4.309
396.0	4.309
397.0	4.290
398.0	4.286
399.0	4.254
400.0	4.232
401.0	4.207
402.0	4.179
403.0	4.159
404.0	4.133
405.0	4.114
406.0	4.088
407.0	4.071
408.0	4.056
409.0	4.033
410.0	4.009
411.0	3.986
412.0	3.972
413.0	3.960
414.0	3.942
415.0	3.913
416.0	3.891
417.0	3.870
418.0	3.860
419.0	3.838
420.0	3.823
421.0	3.803
422.0	3.778
423.0	3.754
424.0	3.727
425.0	3.708
426.0	3.679
427.0	3.662
428.0	3.635
429.0	3.601
430.0	3.567
431.0	3.535
432.0	3.516
433.0	3.489
434.0	3.465
435.0	3.433
436.0	3.408
437.0	3.380
438.0	3.352
439.0	3.329
440.0	3.314
441.0	3.302
442.0	3.285
443.0	3.271
444.0	3.265
445.0	3.265
446.0	3.262
447.0	3.257
448.0	3.257
449.0	3.255
450.0	3.254
451.0	3.255
452.0	3.258
453.0	3.267
454.0	3.266
455.0	3.278
456.0	3.294
457.0	3.309
458.0	3.315
459.0	3.322
460.0	3.338
461.0	3.357
462.0	3.374
463.0	3.392
464.0	3.403
465.0	3.421
466.0	3.432
467.0	3.449
468.0	3.462
469.0	3.480
470.0	3.497
471.0	3.521
472.0	3.538
473.0	3.558
474.0	3.578
475.0	3.604
476.0	3.625
477.0	3.645
478.0	3.658
479.0	3.674
480.0	3.689
481.0	3.714
482.0	3.738
483.0	3.756
484.0	3.765
485.0	3.781
486.0	3.800
487.0	3.821
488.0	3.834
489.0	3.840
490.0	3.853
491.0	3.866
492.0	3.887
493.0	3.904
494.0	3.922
495.0	3.932
496.0	3.944
497.0	3.959
498.0	3.976
499.0	3.995
500.0	4.001
501.0	4.015
502.0	4.029
503.0	4.047
504.0	4.063
505.0	4.071
506.0	4.083
507.0	4.086
508.0	4.096
509.0	4.105
510.0	4.122
511.0	4.133
512.0	4.141
513.0	4.139
514.0	4.140
515.0	4.138
516.0	4.146
517.0	4.154
518.0	4.171
519.0	4.177
520.0	4.174
521.0	4.172
522.0	4.166
523.0	4.170
524.0	4.164
525.0	4.167
526.0	4.167
527.0	4.168
528.0	4.164
529.0	4.153
530.0	4.146
531.0	4.132
532.0	4.130
533.0	4.115
534.0	4.104
535.0	4.087
536.0	4.077
537.0	4.069
538.0	4.056
539.0	4.050
540.0	4.038
541.0	4.025
542.0	4.002
543.0	3.980
544.0	3.964
545.0	3.955
546.0	3.942
547.0	3.927
548.0	3.904
549.0	3.889
550.0	3.869
551.0	3.848
552.0	3.826
553.0	3.804
554.0	3.787
555.0	3.771
556.0	3.765
557.0	3.751
558.0	3.735
559.0	3.708
560.0	3.689
561.0	3.675
562.0	3.662
563.0	3.648
564.0	3.624
565.0	3.606
566.0	3.586
567.0	3.567
568.0	3.548
569.0	3.528
570.0	3.518
571.0	3.497
572.0	3.479
573.0	3.460
574.0	3.449
575.0	3.441
576.0	3.426
577.0	3.411
578.0	3.392
579.0	3.386
580.0	3.374
581.0	3.363
582.0	3.349
583.0	3.342
584.0	3.344
585.0	3.335
586.0	3.334
587.0	3.320
588.0	3.321
589.0	3.309
590.0	3.306
591.0	3.302
592.0	3.307
593.0	3.310
594.0	3.317
595.0	3.324
596.0	3.325
597.0	3.320
598.0	3.312
599.0	3.311
600.0	3.309
601.0	3.313
602.0	3.317
603.0	3.325
604.0	3.328
605.0	3.331
606.0	3.338
607.0	3.353
608.0	3.364
609.0	3.374
610.0	3.385
611.0	3.401
612.0	3.409
613.0	3.417
614.0	3.425
615.0	3.442
616.0	3.454
617.0	3.469
618.0	3.483
619.0	3.500
620.0	3.512
621.0	3.527
622.0	3.547
623.0	3.567
624.0	3.586
625.0	3.601
626.0	3.622
627.0	3.642
628.0	3.667
629.0	3.690
630.0	3.713
631.0	3.739
632.0	3.768
633.0	3.800
634.0	3.828
635.0	3.853
636.0	3.867
637.0	3.897
638.0	3.926
639.0	3.959
640.0	3.984
641.0	4.008
642.0	4.040
643.0	4.073
644.0	4.110
645.0	4.148
646.0	4.177
647.0	4.203
648.0	4.233
649.0	4.267
650.0	4.304
651.0	4.337
652.0	4.371
653.0	4.415
654.0	4.451
655.0	4.486
656.0	4.515
657.0	4.546
658.0	4.583
659.0	4.621
660.0	4.655
661.0	4.680
662.0	4.709
663.0	4.741
664.0	4.782
665.0	4.818
666.0	4.866
667.0	4.903
668.0	4.943
669.0	4.972
670.0	5.016
671.0	5.054
672.0	5.110
673.0	5.160
674.0	5.213
675.0	5.259
676.0	5.311
677.0	5.361
678.0	5.407
679.0	5.444
680.0	5.491
681.0	5.525
682.0	5.567
683.0	5.606
684.0	5.648
685.0	5.691
686.0	5.731
687.0	5.774
688.0	5.818
689.0	5.861
690.0	5.894
691.0	5.947
692.0	6.001
693.0	6.060
694.0	6.082
695.0	6.117
696.0	6.152
697.0	6.209
698.0	6.255
699.0	6.306
700.0	6.354
701.0	6.381
702.0	6.427
703.0	6.453
704.0	6.522
705.0	6.553
706.0	6.603
707.0	6.627
708.0	6.677
709.0	6.720
710.0	6.755
711.0	6.812
712.0	6.864
713.0	6.914
714.0	6.943
715.0	6.976
716.0	7.025
717.0	7.062
718.0	7.100
719.0	7.146
720.0	7.197
721.0	7.262
722.0	7.320
723.0	7.371
724.0	7.409
725.0	7.447
726.0	7.493
727.0	7.570
728.0	7.639
729.0	7.701
730.0	7.716
731.0	7.744
732.0	7.790
733.0	7.841
734.0	7.904
735.0	7.951
736.0	7.997
737.0	8.024
738.0	8.079
739.0	8.132
740.0	8.194
741.0	8.226
742.0	8.275
743.0	8.318
744.0	8.362
745.0	8.426
746.0	8.481
747.0	8.529
748.0	8.553
749.0	8.602
750.0	8.669
751.0	8.733
752.0	8.762
753.0	8.780
754.0	8.814
755.0	8.872
756.0	8.930
757.0	9.010
758.0	9.085
759.0	9.145
760.0	9.165
761.0	9.196
762.0	9.233
763.0	9.292
764.0	9.354
765.0	9.415
766.0	9.437
767.0	9.465
768.0	9.496
769.0	9.542
770.0	9.585
771.0	9.642
772.0	9.727
773.0	9.758
774.0	9.807
775.0	9.842
776.0	9.899
777.0	9.942
778.0	9.940
779.0	10.004
780.0	10.041
781.0	10.082
782.0	10.084
783.0	10.094
784.0	10.153
785.0	10.173
786.0	10.230
787.0	10.291
788.0	10.340
789.0	10.365
790.0	10.387
791.0	10.422
792.0	10.467
793.0	10.535
794.0	10.580
795.0	10.623
796.0	10.643
797.0	10.714
798.0	10.755
799.0	10.774
800.0	10.763
801.0	10.795
802.0	10.822
803.0	10.869
804.0	10.907
805.0	10.934
806.0	10.955
807.0	10.993
808.0	11.046
809.0	11.126
810.0	11.167
811.0	11.225
812.0	11.241
813.0	11.277
814.0	11.293
815.0	11.351
816.0	11.384
817.0	11.439
818.0	11.467
819.0	11.519
820.0	11.567
821.0	11.619
822.0	11.649
823.0	11.657
824.0	11.702
825.0	11.756
826.0	11.818
827.0	11.830
828.0	11.864
829.0	11.889
830.0	11.934
831.0	11.945
832.0	11.970
833.0	12.013
834.0	12.086
835.0	12.148
836.0	12.169
837.0	12.205
838.0	12.231
839.0	12.273
840.0	12.306
841.0	12.342
842.0	12.383
843.0	12.428
844.0	12.438
845.0	12.447
846.0	12.459
847.0	12.524
848.0	12.590
849.0	12.618
850.0	12.633
851.0	12.669
852.0	12.678
853.0	12.730
854.0	12.696
855.0	12.810
856.0	12.777
857.0	12.855
858.0	12.845
859.0	12.971
860.0	12.947
861.0	12.996
862.0	12.998
863.0	13.083
864.0	13.111
865.0	13.037
866.0	13.076
867.0	13.100
868.0	13.153
869.0	13.234
870.0	13.222
871.0	13.384
872.0	13.257
873.0	13.302
874.0	13.150
875.0	13.224
876.0	13.133
877.0	13.318
878.0	13.384
879.0	13.487
880.0	13.358
881.0	13.273
882.0	13.392
883.0	13.601
884.0	13.629
885.0	13.624
886.0	13.496
887.0	13.609
888.0	13.567
889.0	13.750
890.0	13.699
891.0	13.732
892.0	13.642
893.0	13.795
894.0	13.731
895.0	13.780
896.0	13.740
897.0	13.743
898.0	13.531
899.0	13.435
900.0	13.669
901.0	14.039
902.0	14.456
903.0	14.529
904.0	14.549
905.0	14.478
906.0	14.479
907.0	14.497
908.0	14.562
909.0	14.473
910.0	14.452
911.0	14.334
912.0	14.366
913.0	14.386
914.0	14.442
915.0	14.417
916.0	14.423
917.0	14.328
918.0	14.442
919.0	14.498
920.0	14.613
921.0	14.665
922.0	14.756
923.0	14.777
924.0	14.708
925.0	14.618
926.0	14.566
927.0	14.596
928.0	14.632
929.0	14.618
930.0	14.619
931.0	14.589
932.0	14.686
933.0	14.681
934.0	14.721
935.0	14.659
936.0	14.717
937.0	14.710
938.0	14.735
939.0	14.728
940.0	14.732
941.0	14.747
942.0	14.795
943.0	14.831
944.0	14.842
945.0	14.790
946.0	14.775
947.0	14.832
948.0	14.901
949.0	14.892
950.0	14.900
951.0	14.888
952.0	14.909
953.0	14.871
954.0	14.895
955.0	14.896
956.0	14.904
957.0	14.855
958.0	14.899
959.0	14.889
960.0	14.946
961.0	14.877
962.0	14.936
963.0	14.922
964.0	14.968
965.0	14.976
966.0	15.013
967.0	15.008
968.0	14.974
969.0	14.964
970.0	14.967
971.0	15.003
972.0	14.980
973.0	15.014
974.0	14.970
975.0	14.953
976.0	14.934
977.0	14.965
978.0	15.024
979.0	14.996
980.0	14.967
981.0	14.932
982.0	14.949
983.0	14.952
984.0	14.968
985.0	14.965
986.0	14.971
987.0	14.987
988.0	15.008
989.0	15.020
990.0	14.956
991.0	14.946
992.0	14.945
993.0	14.973
994.0	14.971
995.0	14.965
996.0	14.942
997.0	14.917
998.0	14.914
999.0	14.897
1000.0	14.916
1001.0	14.922
1002.0	14.958
1003.0	14.955
1004.0	14.962
1005.0	14.951
1006.0	14.948
1007.0	14.916
1008.0	14.904
1009.0	14.898
1010.0	14.891
1011.0	14.890
1012.0	14.888
1013.0	14.872
1014.0	14.876
1015.0	14.851
1016.0	14.852
1017.0	14.841
1018.0	14.834
1019.0	14.846
1020.0	14.849
1021.0	14.879
1022.0	14.880
1023.0	14.848
1024.0	14.833
1025.0	14.807
1026.0	14.809
1027.0	14.794
1028.0	14.807
1029.0	14.809
1030.0	14.770
1031.0	14.743
1032.0	14.721
1033.0	14.740
1034.0	14.739
1035.0	14.722
1036.0	14.713
1037.0	14.699
1038.0	14.696
1039.0	14.683
1040.0	14.652
1041.0	14.639
1042.0	14.639
1043.0	14.658
1044.0	14.653
1045.0	14.615
1046.0	14.606
1047.0	14.604
1048.0	14.594
1049.0	14.581
1050.0	14.590
1051.0	14.597
1052.0	14.587
1053.0	14.571
1054.0	14.562
1055.0	14.552
1056.0	14.527
1057.0	14.508
1058.0	14.479
1059.0	14.476
1060.0	14.482
1061.0	14.478
1062.0	14.449
1063.0	14.417
1064.0	14.448
1065.0	14.438
1066.0	14.433
1067.0	14.386
1068.0	14.404
1069.0	14.403
1070.0	14.393
1071.0	14.364
1072.0	14.345
1073.0	14.336
1074.0	14.315
1075.0	14.304
1076.0	14.277
1077.0	14.261
1078.0	14.240
1079.0	14.228
1080.0	14.228
1081.0	14.211
1082.0	14.201
1083.0	14.190
1084.0	14.180
1085.0	14.172
1086.0	14.168
1087.0	14.145
1088.0	14.129
1089.0	14.107
1090.0	14.110
1091.0	14.093
1092.0	14.062
1093.0	14.042
1094.0	14.019
1095.0	14.015
1096.0	14.010
1097.0	14.011
1098.0	13.980
1099.0	13.967
1100.0	13.938
1101.0	13.936
1102.0	13.916
1103.0	13.908
1104.0	13.920
1105.0	13.890
1106.0	13.862
1107.0	13.840
1108.0	13.841
1109.0	13.840
1110.0	13.825
1111.0	13.796
1112.0	13.785
1113.0	13.767
1114.0	13.761
1115.0	13.762
1116.0	13.738
1117.0	13.729
1118.0	13.706
1119.0	13.689
1120.0	13.681
1121.0	13.669
1122.0	13.667
1123.0	13.637
1124.0	13.625
1125.0	13.615
1126.0	13.615
1127.0	13.596
1128.0	13.576
1129.0	13.573
1130.0	13.573
1131.0	13.566
1132.0	13.546
1133.0	13.531
1134.0	13.528
1135.0	13.525
1136.0	13.501
1137.0	13.484
1138.0	13.465
1139.0	13.478
1140.0	13.459
1141.0	13.453
1142.0	13.432
1143.0	13.445
1144.0	13.439
1145.0	13.440
1146.0	13.448
1147.0	13.445
1148.0	13.452
1149.0	13.434
1150.0	13.428
1151.0	13.420
1152.0	13.410
1153.0	13.405
1154.0	13.373
1155.0	13.353
1156.0	13.346
1157.0	13.347
1158.0	13.353
1159.0	13.349
1160.0	13.343
1161.0	13.335
1162.0	13.315
1163.0	13.317
1164.0	13.298
1165.0	13.312
1166.0	13.293
1167.0	13.305
1168.0	13.296
1169.0	13.307
1170.0	13.307
1171.0	13.316
1172.0	13.321
1173.0	13.331
1174.0	13.339
1175.0	13.323
1176.0	13.292
1177.0	13.272
1178.0	13.291
1179.0	13.310
1180.0	13.318
1181.0	13.314
1182.0	13.305
1183.0	13.306
1184.0	13.306
1185.0	13.320
1186.0	13.317
1187.0	13.339
1188.0	13.346
1189.0	13.373
1190.0	13.363
1191.0	13.354
1192.0	13.344
1193.0	13.350
1194.0	13.374
1195.0	13.399
1196.0	13.425
1197.0	13.423
1198.0	13.411
1199.0	13.397
1200.0	13.403
1201.0	13.417
1202.0	13.428
1203.0	13.449
1204.0	13.457
1205.0	13.485
1206.0	13.508
1207.0	13.516
1208.0	13.515
1209.0	13.518
1210.0	13.542
1211.0	13.564
1212.0	13.572
1213.0	13.581
1214.0	13.584
1215.0	13.606
1216.0	13.630
1217.0	13.650
1218.0	13.667
1219.0	13.705
1220.0	13.721
1221.0	13.727
1222.0	13.732
1223.0	13.741
1224.0	13.748
1225.0	13.755
1226.0	13.790
1227.0	13.840
1228.0	13.852
1229.0	13.875
1230.0	13.893
1231.0	13.927
1232.0	13.966
1233.0	13.979
1234.0	14.001
1235.0	14.014
1236.0	14.045
1237.0	14.064
1238.0	14.087
1239.0	14.118
1240.0	14.154
1241.0	14.184
1242.0	14.196
1243.0	14.220
1244.0	14.226
1245.0	14.258
1246.0	14.274
1247.0	14.326
1248.0	14.349
1249.0	14.380
1250.0	14.400
1251.0	14.446
1252.0	14.473
1253.0	14.507
1254.0	14.543
1255.0	14.581
1256.0	14.614
1257.0	14.630
1258.0	14.678
1259.0	14.708
1260.0	14.726
1261.0	14.735
1262.0	14.762
1263.0	14.812
1264.0	14.843
1265.0	14.869
1266.0	14.898
1267.0	14.935
1268.0	14.974
1269.0	14.985
1270.0	15.013
1271.0	15.038
1272.0	15.093
1273.0	15.128
1274.0	15.173
1275.0	15.202
1276.0	15.240
1277.0	15.253
1278.0	15.272
1279.0	15.277
1280.0	15.328
1281.0	15.370
1282.0	15.421
1283.0	15.452
1284.0	15.476
1285.0	15.510
1286.0	15.533
1287.0	15.556
1288.0	15.584
1289.0	15.625
1290.0	15.665
1291.0	15.729
1292.0	15.768
1293.0	15.809
1294.0	15.818
1295.0	15.844
1296.0	15.886
1297.0	15.939
1298.0	15.994
1299.0	16.042
1300.0	16.076
1301.0	16.105
1302.0	16.136
1303.0	16.194
1304.0	16.251
1305.0	16.312
1306.0	16.347
1307.0	16.380
1308.0	16.414
1309.0	16.452
1310.0	16.494
1311.0	16.527
1312.0	16.569
1313.0	16.610
1314.0	16.646
1315.0	16.682
1316.0	16.731
1317.0	16.775
1318.0	16.837
1319.0	16.890
1320.0	16.959
1321.0	16.987
1322.0	17.031
1323.0	17.067
1324.0	17.122
1325.0	17.163
1326.0	17.206
1327.0	17.239
1328.0	17.263
1329.0	17.290
1330.0	17.344
1331.0	17.417
1332.0	17.461
1333.0	17.488
1334.0	17.490
1335.0	17.571
1336.0	17.598
1337.0	17.656
1338.0	17.648
1339.0	17.714
1340.0	17.746
1341.0	17.802
1342.0	17.838
1343.0	17.893
1344.0	17.937
1345.0	17.989
1346.0	18.024
1347.0	18.061
1348.0	18.098
1349.0	18.133
1350.0	18.164
1351.0	18.190
1352.0	18.221
1353.0	18.246
1354.0	18.300
1355.0	18.348
1356.0	18.400
1357.0	18.431
1358.0	18.450
1359.0	18.491
1360.0	18.510
1361.0	18.576
1362.0	18.640
1363.0	18.697
1364.0	18.725
1365.0	18.745
1366.0	18.775
1367.0	18.822
1368.0	18.878
1369.0	18.980
1370.0	19.031
1371.0	19.056
1372.0	19.052
1373.0	19.098
1374.0	19.166
1375.0	19.247
1376.0	19.295
1377.0	19.341
1378.0	19.382
1379.0	19.429
1380.0	19.513
1381.0	19.526
1382.0	19.593
1383.0	19.618
1384.0	19.706
1385.0	19.759
1386.0	19.807
1387.0	19.872
1388.0	19.926
1389.0	19.991
1390.0	20.023
1391.0	20.059
1392.0	20.088
1393.0	20.129
1394.0	20.166
1395.0	20.217
1396.0	20.280
1397.0	20.346
1398.0	20.417
1399.0	20.477
1400.0	20.546
1401.0	20.627
1402.0	20.678
1403.0	20.726
1404.0	20.761
1405.0	20.802
1406.0	20.868
1407.0	20.933
1408.0	21.018
1409.0	21.059
1410.0	21.087
1411.0	21.135
1412.0	21.179
1413.0	21.258
1414.0	21.279
1415.0	21.323
1416.0	21.359
1417.0	21.432
1418.0	21.495
1419.0	21.576
1420.0	21.604
1421.0	21.661
1422.0	21.692
1423.0	21.732
1424.0	21.776
1425.0	21.798
1426.0	21.852
1427.0	21.887
1428.0	21.931
1429.0	21.989
1430.0	22.028
1431.0	22.042
1432.0	22.081
1433.0	22.129
1434.0	22.196
1435.0	22.220
1436.0	22.227
1437.0	22.243
1438.0	22.265
1439.0	22.311
1440.0	22.352
1441.0	22.394
1442.0	22.433
1443.0	22.492
1444.0	22.520
1445.0	22.527
1446.0	22.547
1447.0	22.604
1448.0	22.656
1449.0	22.678
1450.0	22.732
1451.0	22.751
1452.0	22.770
1453.0	22.748
1454.0	22.813
1455.0	22.868
1456.0	22.903
1457.0	22.917
1458.0	22.956
1459.0	22.993
1460.0	23.006
1461.0	23.013
1462.0	23.060
1463.0	23.074
1464.0	23.108
1465.0	23.128
1466.0	23.188
1467.0	23.186
1468.0	23.202
1469.0	23.220
1470.0	23.262
1471.0	23.235
1472.0	23.239
1473.0	23.222
1474.0	23.240
1475.0	23.232
1476.0	23.277
1477.0	23.343
1478.0	23.382
1479.0	23.373
1480.0	23.376
1481.0	23.413
1482.0	23.485
1483.0	23.487
1484.0	23.511
1485.0	23.493
1486.0	23.533
1487.0	23.525
1488.0	23.546
1489.0	23.568
1490.0	23.607
1491.0	23.654
1492.0	23.672
1493.0	23.713
1494.0	23.723
1495.0	23.740
1496.0	23.750
1497.0	23.759
1498.0	23.804
1499.0	23.823
1500.0	23.828
1501.0	23.821
1502.0	23.814
1503.0	23.831
1504.0	23.880
1505.0	23.931
1506.0	23.974
1507.0	23.990
1508.0	23.969
1509.0	23.943
1510.0	23.935
1511.0	23.980
1512.0	24.034
1513.0	24.068
1514.0	24.079
1515.0	24.080
1516.0	24.085
1517.0	24.124
1518.0	24.150
1519.0	24.151
1520.0	24.125
1521.0	24.156
1522.0	24.166
1523.0	24.219
1524.0	24.217
1525.0	24.243
1526.0	24.255
1527.0	24.265
1528.0	24.286
1529.0	24.277
1530.0	24.279
1531.0	24.313
1532.0	24.317
1533.0	24.359
1534.0	24.371
1535.0	24.401
1536.0	24.416
1537.0	24.409
1538.0	24.413
1539.0	24.457
1540.0	24.466
1541.0	24.505
1542.0	24.490
1543.0	24.525
1544.0	24.563
1545.0	24.636
1546.0	24.636
1547.0	24.642
1548.0	24.613
1549.0	24.655
1550.0	24.657
1551.0	24.664
1552.0	24.678
1553.0	24.714
1554.0	24.728
1555.0	24.722
1556.0	24.708
1557.0	24.743
1558.0	24.772
1559.0	24.786
1560.0	24.814
1561.0	24.854
1562.0	24.922
1563.0	24.905
1564.0	24.865
1565.0	24.891
1566.0	24.926
1567.0	24.985
1568.0	24.961
1569.0	25.015
1570.0	25.085
1571.0	25.146
1572.0	25.165
1573.0	25.140
1574.0	25.148
1575.0	25.153
1576.0	25.140
1577.0	25.126
1578.0	25.081
1579.0	25.127
1580.0	25.130
1581.0	25.183
1582.0	25.212
1583.0	25.218
1584.0	25.220
1585.0	25.238
1586.0	25.304
1587.0	25.380
1588.0	25.374
1589.0	25.369
1590.0	25.354
1591.0	25.415
1592.0	25.455
1593.0	25.458
1594.0	25.414
1595.0	25.426
1596.0	25.482
1597.0	25.546
1598.0	25.579
1599.0	25.554
1600.0	25.525
