[SUMMARY]
Software Information
Software Name:	UVProbe
Version:	2.43
Mode:	Normal Mode

Data Information
Data is:	Original
Analyst:	
Date/Time:	10/02/2023 19:58:02
Comments:	

Instrument Information
Instrument Name:	SolidSpec3700
Instrument Type:	SolidSpec-3700 Series
Model (S/N):	SolidSpec3700 ( A11085100264CZ )

[METHOD]
[Measurement Properties]
Wavelength Range (nm.):	300,00 to 1400,00
Scan Speed:	Medium
Sampling Interval:	1,0
Auto Sampling Interval:	Disabled
Scan Mode:	Single

[Sample Preparation Properties]
Weight:	
Volume:	
Dilution:	
Path Length:	
Additional Information:	

[Instrument Properties]
Instrument Type:	SolidSpec-3700 Series
Measuring Mode:	Transmittance
Slit Width:	5,0 nm
Time Constant:	1,0 sec.
Source Lamp:	Auto
Light Source Change Wavelength:	285,00 nm
Detector Unit:	Integral Sphere
Detector Change Wavelength:	900,00 nm  1650,00 nm
Grating Change Wavelength:	800,00 nm
S/R Exchange:	Normal
Detector Lock:	Auto
Slit Program:	Fixed
Beam Mode:	Double
Stair Correction:	Disable

[Attachment Properties]
Attachment:	X-Y Stage
Sequence File:	Positions.xys

[Operation]
Threshold:	0,0010000
Points:	4
InterPolate:	Disabled
Average:	Disabled

[DATA]
Wavelength	Data
300.0	81.073
301.0	81.156
302.0	81.246
303.0	81.495
304.0	81.452
305.0	81.412
306.0	81.242
307.0	81.462
308.0	81.475
309.0	81.661
310.0	81.325
311.0	81.497
312.0	81.534
313.0	81.565
314.0	81.402
315.0	81.406
316.0	81.628
317.0	81.716
318.0	81.598
319.0	81.587
320.0	81.603
321.0	81.755
322.0	81.747
323.0	81.518
324.0	81.521
325.0	81.605
326.0	81.660
327.0	81.825
328.0	81.658
329.0	81.891
330.0	81.673
331.0	81.791
332.0	81.739
333.0	81.701
334.0	81.761
335.0	81.786
336.0	81.846
337.0	81.881
338.0	81.926
339.0	82.044
340.0	81.973
341.0	81.956
342.0	81.957
343.0	81.970
344.0	82.075
345.0	82.231
346.0	82.323
347.0	82.370
348.0	82.197
349.0	82.293
350.0	82.248
351.0	82.379
352.0	82.437
353.0	82.621
354.0	82.780
355.0	82.709
356.0	82.618
357.0	82.510
358.0	82.549
359.0	82.563
360.0	82.543
361.0	82.549
362.0	82.510
363.0	82.578
364.0	82.633
365.0	82.669
366.0	82.628
367.0	82.554
368.0	82.605
369.0	82.538
370.0	82.506
371.0	82.423
372.0	82.449
373.0	82.395
374.0	82.436
375.0	82.487
376.0	82.529
377.0	82.459
378.0	82.355
379.0	82.344
380.0	82.327
381.0	82.336
382.0	82.278
383.0	82.286
384.0	82.241
385.0	82.199
386.0	82.082
387.0	82.084
388.0	82.099
389.0	82.203
390.0	82.141
391.0	82.051
392.0	81.881
393.0	81.793
394.0	81.707
395.0	81.655
396.0	81.589
397.0	81.537
398.0	81.520
399.0	81.512
400.0	81.491
401.0	81.328
402.0	81.172
403.0	81.086
404.0	81.065
405.0	81.010
406.0	80.919
407.0	80.856
408.0	80.791
409.0	80.687
410.0	80.599
411.0	80.507
412.0	80.450
413.0	80.326
414.0	80.227
415.0	80.137
416.0	79.983
417.0	79.832
418.0	79.695
419.0	79.615
420.0	79.555
421.0	79.404
422.0	79.328
423.0	79.181
424.0	79.116
425.0	78.950
426.0	78.838
427.0	78.715
428.0	78.622
429.0	78.486
430.0	78.340
431.0	78.186
432.0	78.013
433.0	77.835
434.0	77.676
435.0	77.550
436.0	77.422
437.0	77.255
438.0	77.107
439.0	76.943
440.0	76.848
441.0	76.672
442.0	76.541
443.0	76.321
444.0	76.162
445.0	75.964
446.0	75.839
447.0	75.687
448.0	75.547
449.0	75.341
450.0	75.194
451.0	74.969
452.0	74.795
453.0	74.588
454.0	74.424
455.0	74.218
456.0	74.014
457.0	73.813
458.0	73.615
459.0	73.422
460.0	73.239
461.0	73.042
462.0	72.827
463.0	72.618
464.0	72.422
465.0	72.229
466.0	72.016
467.0	71.846
468.0	71.677
469.0	71.506
470.0	71.314
471.0	71.116
472.0	70.909
473.0	70.674
474.0	70.424
475.0	70.179
476.0	69.961
477.0	69.722
478.0	69.537
479.0	69.287
480.0	69.091
481.0	68.817
482.0	68.564
483.0	68.298
484.0	68.045
485.0	67.805
486.0	67.609
487.0	67.418
488.0	67.218
489.0	66.983
490.0	66.715
491.0	66.507
492.0	66.232
493.0	66.009
494.0	65.762
495.0	65.556
496.0	65.336
497.0	65.126
498.0	64.874
499.0	64.641
500.0	64.381
501.0	64.149
502.0	63.871
503.0	63.607
504.0	63.359
505.0	63.156
506.0	62.917
507.0	62.695
508.0	62.420
509.0	62.222
510.0	61.971
511.0	61.762
512.0	61.484
513.0	61.218
514.0	60.970
515.0	60.751
516.0	60.568
517.0	60.353
518.0	60.126
519.0	59.873
520.0	59.641
521.0	59.424
522.0	59.230
523.0	59.012
524.0	58.789
525.0	58.566
526.0	58.367
527.0	58.113
528.0	57.871
529.0	57.570
530.0	57.382
531.0	57.129
532.0	56.949
533.0	56.707
534.0	56.487
535.0	56.252
536.0	56.043
537.0	55.862
538.0	55.666
539.0	55.477
540.0	55.264
541.0	55.075
542.0	54.844
543.0	54.656
544.0	54.475
545.0	54.296
546.0	54.145
547.0	53.954
548.0	53.788
549.0	53.598
550.0	53.416
551.0	53.218
552.0	53.029
553.0	52.848
554.0	52.695
555.0	52.510
556.0	52.364
557.0	52.209
558.0	52.064
559.0	51.909
560.0	51.728
561.0	51.571
562.0	51.412
563.0	51.287
564.0	51.171
565.0	51.028
566.0	50.940
567.0	50.766
568.0	50.650
569.0	50.475
570.0	50.389
571.0	50.265
572.0	50.160
573.0	50.040
574.0	49.934
575.0	49.815
576.0	49.690
577.0	49.553
578.0	49.445
579.0	49.332
580.0	49.266
581.0	49.154
582.0	49.072
583.0	48.960
584.0	48.891
585.0	48.780
586.0	48.712
587.0	48.644
588.0	48.597
589.0	48.549
590.0	48.489
591.0	48.412
592.0	48.338
593.0	48.289
594.0	48.260
595.0	48.211
596.0	48.177
597.0	48.153
598.0	48.113
599.0	48.071
600.0	48.039
601.0	48.029
602.0	48.006
603.0	48.015
604.0	47.994
605.0	47.986
606.0	47.954
607.0	47.945
608.0	47.920
609.0	47.892
610.0	47.894
611.0	47.928
612.0	47.932
613.0	47.927
614.0	47.913
615.0	47.920
616.0	47.941
617.0	47.938
618.0	47.966
619.0	47.977
620.0	48.017
621.0	48.065
622.0	48.124
623.0	48.121
624.0	48.124
625.0	48.130
626.0	48.167
627.0	48.165
628.0	48.182
629.0	48.251
630.0	48.340
631.0	48.378
632.0	48.401
633.0	48.444
634.0	48.482
635.0	48.517
636.0	48.545
637.0	48.604
638.0	48.684
639.0	48.738
640.0	48.797
641.0	48.845
642.0	48.932
643.0	49.026
644.0	49.151
645.0	49.229
646.0	49.335
647.0	49.408
648.0	49.553
649.0	49.649
650.0	49.741
651.0	49.833
652.0	49.945
653.0	50.092
654.0	50.238
655.0	50.414
656.0	50.578
657.0	50.728
658.0	50.876
659.0	50.991
660.0	51.109
661.0	51.241
662.0	51.390
663.0	51.541
664.0	51.675
665.0	51.819
666.0	51.972
667.0	52.158
668.0	52.374
669.0	52.554
670.0	52.719
671.0	52.850
672.0	53.037
673.0	53.201
674.0	53.406
675.0	53.669
676.0	53.905
677.0	54.110
678.0	54.235
679.0	54.405
680.0	54.600
681.0	54.775
682.0	54.943
683.0	55.108
684.0	55.226
685.0	55.388
686.0	55.533
687.0	55.790
688.0	55.905
689.0	56.087
690.0	56.213
691.0	56.476
692.0	56.648
693.0	56.754
694.0	56.836
695.0	56.951
696.0	57.170
697.0	57.332
698.0	57.516
699.0	57.633
700.0	57.649
701.0	57.721
702.0	57.784
703.0	58.057
704.0	58.149
705.0	58.263
706.0	58.327
707.0	58.411
708.0	58.525
709.0	58.535
710.0	58.616
711.0	58.705
712.0	58.827
713.0	58.859
714.0	58.923
715.0	59.007
716.0	59.072
717.0	59.119
718.0	59.140
719.0	59.250
720.0	59.338
721.0	59.392
722.0	59.426
723.0	59.426
724.0	59.473
725.0	59.487
726.0	59.507
727.0	59.588
728.0	59.707
729.0	59.715
730.0	59.695
731.0	59.664
732.0	59.741
733.0	59.865
734.0	59.962
735.0	59.947
736.0	59.879
737.0	59.858
738.0	59.913
739.0	59.967
740.0	60.010
741.0	60.085
742.0	60.089
743.0	60.058
744.0	60.108
745.0	60.117
746.0	60.185
747.0	60.136
748.0	60.188
749.0	60.191
750.0	60.116
751.0	60.130
752.0	60.148
753.0	60.228
754.0	60.254
755.0	60.289
756.0	60.320
757.0	60.265
758.0	60.243
759.0	60.228
760.0	60.241
761.0	60.305
762.0	60.350
763.0	60.411
764.0	60.406
765.0	60.478
766.0	60.380
767.0	60.340
768.0	60.210
769.0	60.360
770.0	60.317
771.0	60.369
772.0	60.288
773.0	60.253
774.0	60.310
775.0	60.313
776.0	60.460
777.0	60.422
778.0	60.509
779.0	60.452
780.0	60.479
781.0	60.363
782.0	60.331
783.0	60.283
784.0	60.337
785.0	60.406
786.0	60.474
787.0	60.514
788.0	60.487
789.0	60.371
790.0	60.328
791.0	60.450
792.0	60.638
793.0	60.578
794.0	60.476
795.0	60.385
796.0	60.508
797.0	60.581
798.0	60.550
799.0	60.537
800.0	60.408
801.0	60.421
802.0	60.385
803.0	60.397
804.0	60.333
805.0	60.322
806.0	60.358
807.0	60.402
808.0	60.406
809.0	60.373
810.0	60.327
811.0	60.312
812.0	60.318
813.0	60.359
814.0	60.407
815.0	60.451
816.0	60.496
817.0	60.469
818.0	60.463
819.0	60.469
820.0	60.459
821.0	60.438
822.0	60.491
823.0	60.541
824.0	60.607
825.0	60.555
826.0	60.594
827.0	60.542
828.0	60.504
829.0	60.481
830.0	60.488
831.0	60.646
832.0	60.663
833.0	60.716
834.0	60.657
835.0	60.688
836.0	60.730
837.0	60.774
838.0	60.793
839.0	60.854
840.0	60.855
841.0	60.818
842.0	60.815
843.0	60.743
844.0	60.732
845.0	60.752
846.0	60.846
847.0	61.026
848.0	60.900
849.0	60.896
850.0	60.876
851.0	61.028
852.0	61.106
853.0	61.202
854.0	61.139
855.0	60.895
856.0	60.750
857.0	60.781
858.0	61.193
859.0	61.164
860.0	61.122
861.0	61.070
862.0	61.337
863.0	61.236
864.0	61.147
865.0	60.788
866.0	61.290
867.0	61.120
868.0	61.402
869.0	61.221
870.0	61.190
871.0	61.266
872.0	61.279
873.0	61.392
874.0	61.534
875.0	61.464
876.0	61.638
877.0	61.417
878.0	61.645
879.0	61.910
880.0	61.888
881.0	61.678
882.0	61.635
883.0	61.697
884.0	61.279
885.0	61.929
886.0	61.663
887.0	61.981
888.0	61.094
889.0	60.986
890.0	61.692
891.0	62.242
892.0	63.028
893.0	62.754
894.0	62.393
895.0	62.180
896.0	62.704
897.0	63.053
898.0	63.375
899.0	62.831
900.0	62.610
901.0	62.486
902.0	62.563
903.0	62.549
904.0	62.539
905.0	62.538
906.0	62.551
907.0	62.538
908.0	62.519
909.0	62.534
910.0	62.482
911.0	62.471
912.0	62.531
913.0	62.612
914.0	62.808
915.0	62.924
916.0	62.896
917.0	62.780
918.0	62.740
919.0	62.908
920.0	63.009
921.0	63.153
922.0	63.144
923.0	63.157
924.0	63.078
925.0	63.105
926.0	63.184
927.0	63.303
928.0	63.407
929.0	63.454
930.0	63.417
931.0	63.339
932.0	63.374
933.0	63.502
934.0	63.570
935.0	63.677
936.0	63.663
937.0	63.788
938.0	63.726
939.0	63.828
940.0	63.797
941.0	63.893
942.0	63.894
943.0	63.926
944.0	63.890
945.0	63.927
946.0	63.946
947.0	64.073
948.0	64.118
949.0	64.189
950.0	64.261
951.0	64.343
952.0	64.387
953.0	64.355
954.0	64.423
955.0	64.524
956.0	64.551
957.0	64.546
958.0	64.551
959.0	64.685
960.0	64.764
961.0	64.822
962.0	64.814
963.0	64.851
964.0	64.937
965.0	65.007
966.0	65.080
967.0	65.096
968.0	65.146
969.0	65.197
970.0	65.244
971.0	65.313
972.0	65.370
973.0	65.453
974.0	65.525
975.0	65.549
976.0	65.608
977.0	65.663
978.0	65.733
979.0	65.797
980.0	65.867
981.0	65.934
982.0	65.944
983.0	65.975
984.0	66.067
985.0	66.139
986.0	66.245
987.0	66.279
988.0	66.338
989.0	66.372
990.0	66.473
991.0	66.529
992.0	66.594
993.0	66.619
994.0	66.713
995.0	66.791
996.0	66.876
997.0	66.962
998.0	67.032
999.0	67.090
1000.0	67.161
1001.0	67.194
1002.0	67.257
1003.0	67.292
1004.0	67.389
1005.0	67.439
1006.0	67.497
1007.0	67.587
1008.0	67.647
1009.0	67.759
1010.0	67.757
1011.0	67.875
1012.0	67.883
1013.0	67.965
1014.0	68.018
1015.0	68.137
1016.0	68.212
1017.0	68.287
1018.0	68.354
1019.0	68.424
1020.0	68.454
1021.0	68.509
1022.0	68.547
1023.0	68.627
1024.0	68.721
1025.0	68.840
1026.0	68.926
1027.0	68.981
1028.0	69.004
1029.0	69.079
1030.0	69.127
1031.0	69.213
1032.0	69.249
1033.0	69.339
1034.0	69.399
1035.0	69.507
1036.0	69.563
1037.0	69.651
1038.0	69.698
1039.0	69.745
1040.0	69.836
1041.0	69.926
1042.0	70.000
1043.0	70.057
1044.0	70.119
1045.0	70.224
1046.0	70.285
1047.0	70.378
1048.0	70.444
1049.0	70.533
1050.0	70.608
1051.0	70.704
1052.0	70.768
1053.0	70.803
1054.0	70.844
1055.0	70.959
1056.0	71.050
1057.0	71.149
1058.0	71.184
1059.0	71.276
1060.0	71.346
1061.0	71.432
1062.0	71.491
1063.0	71.560
1064.0	71.656
1065.0	71.754
1066.0	71.828
1067.0	71.873
1068.0	71.914
1069.0	71.976
1070.0	72.064
1071.0	72.118
1072.0	72.199
1073.0	72.259
1074.0	72.351
1075.0	72.447
1076.0	72.506
1077.0	72.584
1078.0	72.622
1079.0	72.698
1080.0	72.776
1081.0	72.851
1082.0	72.940
1083.0	73.014
1084.0	73.094
1085.0	73.166
1086.0	73.237
1087.0	73.320
1088.0	73.406
1089.0	73.463
1090.0	73.539
1091.0	73.618
1092.0	73.691
1093.0	73.756
1094.0	73.808
1095.0	73.922
1096.0	73.997
1097.0	74.066
1098.0	74.123
1099.0	74.239
1100.0	74.351
1101.0	74.429
1102.0	74.469
1103.0	74.508
1104.0	74.572
1105.0	74.633
1106.0	74.688
1107.0	74.752
1108.0	74.802
1109.0	74.891
1110.0	74.987
1111.0	75.093
1112.0	75.148
1113.0	75.186
1114.0	75.231
1115.0	75.316
1116.0	75.393
1117.0	75.444
1118.0	75.528
1119.0	75.579
1120.0	75.679
1121.0	75.696
1122.0	75.781
1123.0	75.836
1124.0	75.923
1125.0	76.000
1126.0	76.055
1127.0	76.121
1128.0	76.161
1129.0	76.208
1130.0	76.262
1131.0	76.314
1132.0	76.395
1133.0	76.465
1134.0	76.553
1135.0	76.611
1136.0	76.680
1137.0	76.715
1138.0	76.785
1139.0	76.844
1140.0	76.914
1141.0	76.967
1142.0	76.995
1143.0	77.069
1144.0	77.118
1145.0	77.181
1146.0	77.198
1147.0	77.225
1148.0	77.293
1149.0	77.370
1150.0	77.442
1151.0	77.494
1152.0	77.526
1153.0	77.592
1154.0	77.617
1155.0	77.693
1156.0	77.755
1157.0	77.797
1158.0	77.856
1159.0	77.901
1160.0	77.979
1161.0	78.006
1162.0	78.043
1163.0	78.091
1164.0	78.164
1165.0	78.216
1166.0	78.298
1167.0	78.326
1168.0	78.368
1169.0	78.410
1170.0	78.468
1171.0	78.531
1172.0	78.587
1173.0	78.635
1174.0	78.683
1175.0	78.705
1176.0	78.735
1177.0	78.759
1178.0	78.791
1179.0	78.832
1180.0	78.904
1181.0	78.958
1182.0	79.003
1183.0	79.024
1184.0	79.048
1185.0	79.070
1186.0	79.133
1187.0	79.165
1188.0	79.211
1189.0	79.238
1190.0	79.311
1191.0	79.372
1192.0	79.423
1193.0	79.438
1194.0	79.495
1195.0	79.497
1196.0	79.567
1197.0	79.585
1198.0	79.647
1199.0	79.684
1200.0	79.685
1201.0	79.745
1202.0	79.740
1203.0	79.825
1204.0	79.814
1205.0	79.866
1206.0	79.898
1207.0	79.928
1208.0	79.934
1209.0	79.951
1210.0	80.003
1211.0	80.072
1212.0	80.090
1213.0	80.106
1214.0	80.111
1215.0	80.108
1216.0	80.154
1217.0	80.191
1218.0	80.240
1219.0	80.236
1220.0	80.265
1221.0	80.322
1222.0	80.359
1223.0	80.338
1224.0	80.337
1225.0	80.396
1226.0	80.454
1227.0	80.487
1228.0	80.477
1229.0	80.472
1230.0	80.467
1231.0	80.480
1232.0	80.527
1233.0	80.581
1234.0	80.615
1235.0	80.642
1236.0	80.649
1237.0	80.650
1238.0	80.659
1239.0	80.661
1240.0	80.707
1241.0	80.728
1242.0	80.750
1243.0	80.728
1244.0	80.720
1245.0	80.741
1246.0	80.764
1247.0	80.779
1248.0	80.753
1249.0	80.756
1250.0	80.785
1251.0	80.825
1252.0	80.859
1253.0	80.859
1254.0	80.869
1255.0	80.847
1256.0	80.841
1257.0	80.863
1258.0	80.887
1259.0	80.920
1260.0	80.893
1261.0	80.911
1262.0	80.915
1263.0	80.977
1264.0	80.959
1265.0	80.946
1266.0	80.917
1267.0	80.962
1268.0	80.957
1269.0	80.971
1270.0	80.935
1271.0	80.970
1272.0	80.971
1273.0	80.970
1274.0	80.992
1275.0	80.996
1276.0	80.998
1277.0	80.970
1278.0	80.954
1279.0	80.988
1280.0	80.987
1281.0	81.045
1282.0	81.042
1283.0	81.050
1284.0	80.997
1285.0	81.011
1286.0	81.012
1287.0	81.019
1288.0	81.024
1289.0	81.028
1290.0	81.008
1291.0	80.995
1292.0	80.964
1293.0	80.961
1294.0	80.925
1295.0	80.925
1296.0	80.956
1297.0	80.981
1298.0	80.990
1299.0	80.981
1300.0	80.949
1301.0	80.959
1302.0	80.916
1303.0	80.898
1304.0	80.880
1305.0	80.890
1306.0	80.912
1307.0	80.880
1308.0	80.868
1309.0	80.833
1310.0	80.825
1311.0	80.836
1312.0	80.865
1313.0	80.879
1314.0	80.859
1315.0	80.844
1316.0	80.824
1317.0	80.802
1318.0	80.781
1319.0	80.793
1320.0	80.795
1321.0	80.783
1322.0	80.765
1323.0	80.790
1324.0	80.771
1325.0	80.749
1326.0	80.705
1327.0	80.690
1328.0	80.670
1329.0	80.685
1330.0	80.686
1331.0	80.663
1332.0	80.620
1333.0	80.604
1334.0	80.626
1335.0	80.615
1336.0	80.598
1337.0	80.588
1338.0	80.588
1339.0	80.561
1340.0	80.546
1341.0	80.478
1342.0	80.483
1343.0	80.442
1344.0	80.445
1345.0	80.407
1346.0	80.406
1347.0	80.405
1348.0	80.395
1349.0	80.349
1350.0	80.307
1351.0	80.310
1352.0	80.327
1353.0	80.362
1354.0	80.311
1355.0	80.242
1356.0	80.182
1357.0	80.173
1358.0	80.195
1359.0	80.161
1360.0	80.116
1361.0	80.125
1362.0	80.101
1363.0	80.121
1364.0	80.092
1365.0	80.059
1366.0	80.019
1367.0	79.950
1368.0	79.949
1369.0	79.902
1370.0	79.855
1371.0	79.820
1372.0	79.815
1373.0	79.834
1374.0	79.840
1375.0	79.805
1376.0	79.718
1377.0	79.674
1378.0	79.629
1379.0	79.604
1380.0	79.570
1381.0	79.528
1382.0	79.474
1383.0	79.395
1384.0	79.390
1385.0	79.432
1386.0	79.446
1387.0	79.423
1388.0	79.398
1389.0	79.394
1390.0	79.382
1391.0	79.350
1392.0	79.299
1393.0	79.303
1394.0	79.289
1395.0	79.302
1396.0	79.275
1397.0	79.273
1398.0	79.271
1399.0	79.255
1400.0	79.238
