[SUMMARY]
Software Information
Software Name:	UVProbe
Version:	2.43
Mode:	Normal Mode

Data Information
Data is:	Original
Analyst:	
Date/Time:	23/02/2023 19:01:29
Comments:	

Instrument Information
Instrument Name:	SolidSpec3700
Instrument Type:	SolidSpec-3700 Series
Model (S/N):	SolidSpec3700 ( A11085100264CZ )

[METHOD]
[Measurement Properties]
Wavelength Range (nm.):	285,00 to 1600,00
Scan Speed:	Medium
Sampling Interval:	1,0
Auto Sampling Interval:	Disabled
Scan Mode:	Single

[Sample Preparation Properties]
Weight:	
Volume:	
Dilution:	
Path Length:	
Additional Information:	

[Instrument Properties]
Instrument Type:	SolidSpec-3700 Series
Measuring Mode:	Reflectance
Slit Width:	5,0 nm
Time Constant:	1,0 sec.
Source Lamp:	Auto
Light Source Change Wavelength:	282,00 nm
Detector Unit:	Integral Sphere
Detector Change Wavelength:	900,00 nm  1650,00 nm
Grating Change Wavelength:	800,00 nm
S/R Exchange:	Inverse
Detector Lock:	Auto
Slit Program:	Fixed
Beam Mode:	Double
Stair Correction:	Disable

[Attachment Properties]
Attachment:	X-Y Stage
Sequence File:	Positions.xys

[Operation]
Threshold:	0,0010000
Points:	4
InterPolate:	Disabled
Average:	Disabled

[DATA]
Wavelength	Data
285.0	5.819
286.0	5.828
287.0	5.905
288.0	6.007
289.0	6.163
290.0	6.235
291.0	6.308
292.0	6.384
293.0	6.467
294.0	6.559
295.0	6.613
296.0	6.667
297.0	6.699
298.0	6.738
299.0	6.816
300.0	6.874
301.0	6.940
302.0	6.962
303.0	7.014
304.0	6.986
305.0	7.029
306.0	7.014
307.0	7.053
308.0	7.034
309.0	7.026
310.0	7.001
311.0	6.985
312.0	6.938
313.0	6.904
314.0	6.863
315.0	6.833
316.0	6.774
317.0	6.703
318.0	6.661
319.0	6.620
320.0	6.576
321.0	6.545
322.0	6.484
323.0	6.427
324.0	6.348
325.0	6.327
326.0	6.278
327.0	6.222
328.0	6.153
329.0	6.090
330.0	6.060
331.0	6.033
332.0	6.014
333.0	5.970
334.0	5.919
335.0	5.872
336.0	5.835
337.0	5.798
338.0	5.771
339.0	5.746
340.0	5.729
341.0	5.726
342.0	5.715
343.0	5.705
344.0	5.678
345.0	5.671
346.0	5.653
347.0	5.662
348.0	5.664
349.0	5.674
350.0	5.684
351.0	5.697
352.0	5.722
353.0	5.745
354.0	5.751
355.0	5.750
356.0	5.747
357.0	5.775
358.0	5.788
359.0	5.804
360.0	5.796
361.0	5.805
362.0	5.806
363.0	5.840
364.0	5.856
365.0	5.870
366.0	5.848
367.0	5.833
368.0	5.823
369.0	5.823
370.0	5.816
371.0	5.807
372.0	5.782
373.0	5.776
374.0	5.746
375.0	5.742
376.0	5.721
377.0	5.712
378.0	5.703
379.0	5.701
380.0	5.702
381.0	5.678
382.0	5.662
383.0	5.635
384.0	5.628
385.0	5.609
386.0	5.595
387.0	5.574
388.0	5.558
389.0	5.547
390.0	5.545
391.0	5.533
392.0	5.528
393.0	5.520
394.0	5.508
395.0	5.487
396.0	5.472
397.0	5.457
398.0	5.444
399.0	5.408
400.0	5.393
401.0	5.361
402.0	5.356
403.0	5.331
404.0	5.308
405.0	5.281
406.0	5.275
407.0	5.276
408.0	5.271
409.0	5.258
410.0	5.255
411.0	5.257
412.0	5.255
413.0	5.259
414.0	5.262
415.0	5.280
416.0	5.316
417.0	5.337
418.0	5.348
419.0	5.354
420.0	5.377
421.0	5.415
422.0	5.445
423.0	5.469
424.0	5.493
425.0	5.507
426.0	5.523
427.0	5.537
428.0	5.557
429.0	5.585
430.0	5.621
431.0	5.648
432.0	5.670
433.0	5.685
434.0	5.713
435.0	5.735
436.0	5.774
437.0	5.797
438.0	5.826
439.0	5.838
440.0	5.867
441.0	5.888
442.0	5.913
443.0	5.930
444.0	5.959
445.0	5.975
446.0	6.010
447.0	6.045
448.0	6.077
449.0	6.105
450.0	6.133
451.0	6.183
452.0	6.213
453.0	6.244
454.0	6.275
455.0	6.320
456.0	6.358
457.0	6.396
458.0	6.428
459.0	6.472
460.0	6.509
461.0	6.547
462.0	6.581
463.0	6.617
464.0	6.652
465.0	6.684
466.0	6.712
467.0	6.743
468.0	6.780
469.0	6.815
470.0	6.849
471.0	6.883
472.0	6.916
473.0	6.954
474.0	6.988
475.0	7.025
476.0	7.061
477.0	7.092
478.0	7.126
479.0	7.159
480.0	7.192
481.0	7.221
482.0	7.245
483.0	7.266
484.0	7.286
485.0	7.297
486.0	7.324
487.0	7.345
488.0	7.376
489.0	7.396
490.0	7.417
491.0	7.440
492.0	7.461
493.0	7.483
494.0	7.507
495.0	7.523
496.0	7.536
497.0	7.549
498.0	7.580
499.0	7.606
500.0	7.621
501.0	7.624
502.0	7.637
503.0	7.654
504.0	7.663
505.0	7.672
506.0	7.680
507.0	7.702
508.0	7.724
509.0	7.745
510.0	7.748
511.0	7.750
512.0	7.760
513.0	7.771
514.0	7.778
515.0	7.778
516.0	7.779
517.0	7.782
518.0	7.776
519.0	7.775
520.0	7.769
521.0	7.780
522.0	7.786
523.0	7.783
524.0	7.776
525.0	7.768
526.0	7.762
527.0	7.760
528.0	7.744
529.0	7.728
530.0	7.720
531.0	7.705
532.0	7.705
533.0	7.683
534.0	7.674
535.0	7.659
536.0	7.643
537.0	7.631
538.0	7.616
539.0	7.604
540.0	7.596
541.0	7.574
542.0	7.553
543.0	7.528
544.0	7.514
545.0	7.490
546.0	7.475
547.0	7.444
548.0	7.414
549.0	7.386
550.0	7.365
551.0	7.354
552.0	7.334
553.0	7.318
554.0	7.307
555.0	7.279
556.0	7.255
557.0	7.223
558.0	7.212
559.0	7.182
560.0	7.160
561.0	7.132
562.0	7.117
563.0	7.088
564.0	7.067
565.0	7.051
566.0	7.039
567.0	7.016
568.0	6.995
569.0	6.971
570.0	6.951
571.0	6.931
572.0	6.914
573.0	6.887
574.0	6.870
575.0	6.845
576.0	6.836
577.0	6.813
578.0	6.803
579.0	6.786
580.0	6.771
581.0	6.751
582.0	6.744
583.0	6.730
584.0	6.731
585.0	6.715
586.0	6.708
587.0	6.686
588.0	6.676
589.0	6.672
590.0	6.666
591.0	6.661
592.0	6.640
593.0	6.628
594.0	6.619
595.0	6.613
596.0	6.612
597.0	6.595
598.0	6.588
599.0	6.579
600.0	6.580
601.0	6.580
602.0	6.579
603.0	6.576
604.0	6.573
605.0	6.561
606.0	6.556
607.0	6.558
608.0	6.563
609.0	6.571
610.0	6.557
611.0	6.568
612.0	6.569
613.0	6.580
614.0	6.567
615.0	6.566
616.0	6.566
617.0	6.569
618.0	6.562
619.0	6.560
620.0	6.557
621.0	6.559
622.0	6.563
623.0	6.581
624.0	6.587
625.0	6.590
626.0	6.592
627.0	6.600
628.0	6.612
629.0	6.617
630.0	6.622
631.0	6.622
632.0	6.636
633.0	6.648
634.0	6.655
635.0	6.655
636.0	6.658
637.0	6.670
638.0	6.685
639.0	6.688
640.0	6.694
641.0	6.688
642.0	6.703
643.0	6.713
644.0	6.728
645.0	6.721
646.0	6.729
647.0	6.743
648.0	6.765
649.0	6.784
650.0	6.788
651.0	6.794
652.0	6.796
653.0	6.809
654.0	6.826
655.0	6.833
656.0	6.835
657.0	6.851
658.0	6.864
659.0	6.884
660.0	6.880
661.0	6.887
662.0	6.899
663.0	6.907
664.0	6.916
665.0	6.919
666.0	6.939
667.0	6.959
668.0	6.977
669.0	6.990
670.0	7.001
671.0	7.027
672.0	7.059
673.0	7.105
674.0	7.113
675.0	7.129
676.0	7.119
677.0	7.134
678.0	7.152
679.0	7.167
680.0	7.181
681.0	7.179
682.0	7.194
683.0	7.209
684.0	7.228
685.0	7.256
686.0	7.272
687.0	7.286
688.0	7.293
689.0	7.310
690.0	7.329
691.0	7.335
692.0	7.351
693.0	7.357
694.0	7.375
695.0	7.395
696.0	7.421
697.0	7.440
698.0	7.444
699.0	7.446
700.0	7.444
701.0	7.455
702.0	7.470
703.0	7.505
704.0	7.512
705.0	7.536
706.0	7.531
707.0	7.548
708.0	7.556
709.0	7.589
710.0	7.631
711.0	7.643
712.0	7.672
713.0	7.668
714.0	7.689
715.0	7.679
716.0	7.696
717.0	7.725
718.0	7.744
719.0	7.759
720.0	7.786
721.0	7.808
722.0	7.819
723.0	7.819
724.0	7.825
725.0	7.851
726.0	7.881
727.0	7.905
728.0	7.929
729.0	7.933
730.0	7.949
731.0	7.951
732.0	7.978
733.0	7.990
734.0	8.005
735.0	7.999
736.0	8.031
737.0	8.055
738.0	8.080
739.0	8.074
740.0	8.100
741.0	8.101
742.0	8.120
743.0	8.138
744.0	8.179
745.0	8.234
746.0	8.256
747.0	8.250
748.0	8.251
749.0	8.255
750.0	8.287
751.0	8.288
752.0	8.316
753.0	8.332
754.0	8.372
755.0	8.400
756.0	8.417
757.0	8.410
758.0	8.422
759.0	8.441
760.0	8.477
761.0	8.461
762.0	8.493
763.0	8.520
764.0	8.545
765.0	8.552
766.0	8.556
767.0	8.587
768.0	8.600
769.0	8.582
770.0	8.577
771.0	8.570
772.0	8.617
773.0	8.659
774.0	8.691
775.0	8.716
776.0	8.726
777.0	8.713
778.0	8.719
779.0	8.698
780.0	8.734
781.0	8.742
782.0	8.786
783.0	8.800
784.0	8.801
785.0	8.812
786.0	8.853
787.0	8.881
788.0	8.885
789.0	8.871
790.0	8.881
791.0	8.922
792.0	8.941
793.0	8.967
794.0	8.970
795.0	8.984
796.0	8.983
797.0	9.002
798.0	9.009
799.0	9.055
800.0	9.076
801.0	9.106
802.0	9.107
803.0	9.123
804.0	9.150
805.0	9.184
806.0	9.187
807.0	9.184
808.0	9.192
809.0	9.216
810.0	9.239
811.0	9.255
812.0	9.253
813.0	9.267
814.0	9.274
815.0	9.305
816.0	9.319
817.0	9.320
818.0	9.321
819.0	9.326
820.0	9.341
821.0	9.377
822.0	9.393
823.0	9.407
824.0	9.401
825.0	9.422
826.0	9.437
827.0	9.461
828.0	9.485
829.0	9.498
830.0	9.494
831.0	9.502
832.0	9.530
833.0	9.566
834.0	9.583
835.0	9.566
836.0	9.565
837.0	9.566
838.0	9.582
839.0	9.609
840.0	9.594
841.0	9.602
842.0	9.581
843.0	9.622
844.0	9.647
845.0	9.670
846.0	9.679
847.0	9.703
848.0	9.688
849.0	9.691
850.0	9.659
851.0	9.707
852.0	9.743
853.0	9.756
854.0	9.745
855.0	9.707
856.0	9.745
857.0	9.737
858.0	9.774
859.0	9.750
860.0	9.785
861.0	9.822
862.0	9.902
863.0	9.894
864.0	9.837
865.0	9.746
866.0	9.766
867.0	9.898
868.0	9.991
869.0	10.062
870.0	10.058
871.0	10.148
872.0	10.043
873.0	10.004
874.0	9.802
875.0	9.861
876.0	9.890
877.0	10.040
878.0	10.081
879.0	10.016
880.0	9.941
881.0	9.898
882.0	9.973
883.0	10.044
884.0	10.058
885.0	10.182
886.0	10.035
887.0	10.062
888.0	10.050
889.0	10.242
890.0	10.210
891.0	10.204
892.0	10.377
893.0	10.553
894.0	10.546
895.0	10.231
896.0	10.149
897.0	9.876
898.0	9.809
899.0	9.689
900.0	9.956
901.0	10.182
902.0	10.529
903.0	10.623
904.0	10.617
905.0	10.347
906.0	10.200
907.0	10.287
908.0	10.337
909.0	10.469
910.0	10.410
911.0	10.528
912.0	10.410
913.0	10.510
914.0	10.424
915.0	10.485
916.0	10.482
917.0	10.540
918.0	10.558
919.0	10.619
920.0	10.607
921.0	10.601
922.0	10.536
923.0	10.534
924.0	10.600
925.0	10.537
926.0	10.563
927.0	10.533
928.0	10.670
929.0	10.704
930.0	10.689
931.0	10.627
932.0	10.629
933.0	10.624
934.0	10.589
935.0	10.566
936.0	10.525
937.0	10.513
938.0	10.532
939.0	10.567
940.0	10.566
941.0	10.497
942.0	10.555
943.0	10.616
944.0	10.621
945.0	10.589
946.0	10.532
947.0	10.579
948.0	10.534
949.0	10.553
950.0	10.555
951.0	10.578
952.0	10.578
953.0	10.566
954.0	10.585
955.0	10.602
956.0	10.609
957.0	10.586
958.0	10.616
959.0	10.587
960.0	10.605
961.0	10.608
962.0	10.668
963.0	10.632
964.0	10.653
965.0	10.613
966.0	10.676
967.0	10.604
968.0	10.596
969.0	10.597
970.0	10.612
971.0	10.675
972.0	10.677
973.0	10.725
974.0	10.704
975.0	10.676
976.0	10.635
977.0	10.622
978.0	10.647
979.0	10.646
980.0	10.626
981.0	10.557
982.0	10.561
983.0	10.553
984.0	10.635
985.0	10.642
986.0	10.659
987.0	10.655
988.0	10.622
989.0	10.643
990.0	10.623
991.0	10.635
992.0	10.610
993.0	10.598
994.0	10.620
995.0	10.618
996.0	10.621
997.0	10.585
998.0	10.584
999.0	10.595
1000.0	10.626
1001.0	10.607
1002.0	10.600
1003.0	10.591
1004.0	10.621
1005.0	10.615
1006.0	10.598
1007.0	10.568
1008.0	10.544
1009.0	10.566
1010.0	10.587
1011.0	10.612
1012.0	10.600
1013.0	10.582
1014.0	10.549
1015.0	10.570
1016.0	10.582
1017.0	10.610
1018.0	10.594
1019.0	10.588
1020.0	10.580
1021.0	10.573
1022.0	10.590
1023.0	10.595
1024.0	10.595
1025.0	10.590
1026.0	10.588
1027.0	10.598
1028.0	10.579
1029.0	10.582
1030.0	10.578
1031.0	10.601
1032.0	10.591
1033.0	10.593
1034.0	10.583
1035.0	10.585
1036.0	10.562
1037.0	10.565
1038.0	10.556
1039.0	10.564
1040.0	10.547
1041.0	10.565
1042.0	10.567
1043.0	10.598
1044.0	10.603
1045.0	10.594
1046.0	10.574
1047.0	10.531
1048.0	10.512
1049.0	10.516
1050.0	10.549
1051.0	10.588
1052.0	10.589
1053.0	10.583
1054.0	10.541
1055.0	10.535
1056.0	10.524
1057.0	10.542
1058.0	10.515
1059.0	10.518
1060.0	10.536
1061.0	10.569
1062.0	10.567
1063.0	10.556
1064.0	10.536
1065.0	10.535
1066.0	10.553
1067.0	10.557
1068.0	10.557
1069.0	10.549
1070.0	10.567
1071.0	10.589
1072.0	10.584
1073.0	10.556
1074.0	10.528
1075.0	10.529
1076.0	10.555
1077.0	10.562
1078.0	10.567
1079.0	10.565
1080.0	10.571
1081.0	10.579
1082.0	10.566
1083.0	10.584
1084.0	10.596
1085.0	10.606
1086.0	10.587
1087.0	10.560
1088.0	10.547
1089.0	10.540
1090.0	10.546
1091.0	10.560
1092.0	10.568
1093.0	10.572
1094.0	10.543
1095.0	10.557
1096.0	10.553
1097.0	10.566
1098.0	10.550
1099.0	10.546
1100.0	10.564
1101.0	10.583
1102.0	10.583
1103.0	10.571
1104.0	10.547
1105.0	10.539
1106.0	10.546
1107.0	10.559
1108.0	10.570
1109.0	10.566
1110.0	10.564
1111.0	10.552
1112.0	10.565
1113.0	10.564
1114.0	10.601
1115.0	10.615
1116.0	10.626
1117.0	10.602
1118.0	10.594
1119.0	10.605
1120.0	10.599
1121.0	10.586
1122.0	10.581
1123.0	10.599
1124.0	10.622
1125.0	10.618
1126.0	10.608
1127.0	10.595
1128.0	10.594
1129.0	10.598
1130.0	10.613
1131.0	10.610
1132.0	10.624
1133.0	10.621
1134.0	10.629
1135.0	10.635
1136.0	10.645
1137.0	10.658
1138.0	10.661
1139.0	10.666
1140.0	10.676
1141.0	10.673
1142.0	10.669
1143.0	10.657
1144.0	10.663
1145.0	10.683
1146.0	10.715
1147.0	10.723
1148.0	10.726
1149.0	10.728
1150.0	10.748
1151.0	10.768
1152.0	10.779
1153.0	10.789
1154.0	10.779
1155.0	10.773
1156.0	10.759
1157.0	10.758
1158.0	10.761
1159.0	10.769
1160.0	10.778
1161.0	10.795
1162.0	10.822
1163.0	10.838
1164.0	10.842
1165.0	10.841
1166.0	10.855
1167.0	10.853
1168.0	10.854
1169.0	10.833
1170.0	10.858
1171.0	10.868
1172.0	10.887
1173.0	10.879
1174.0	10.898
1175.0	10.900
1176.0	10.907
1177.0	10.906
1178.0	10.931
1179.0	10.940
1180.0	10.941
1181.0	10.943
1182.0	10.956
1183.0	10.970
1184.0	10.969
1185.0	10.963
1186.0	10.981
1187.0	11.001
1188.0	11.020
1189.0	11.016
1190.0	11.024
1191.0	11.030
1192.0	11.045
1193.0	11.045
1194.0	11.054
1195.0	11.043
1196.0	11.058
1197.0	11.067
1198.0	11.085
1199.0	11.109
1200.0	11.126
1201.0	11.142
1202.0	11.142
1203.0	11.137
1204.0	11.151
1205.0	11.156
1206.0	11.182
1207.0	11.191
1208.0	11.202
1209.0	11.217
1210.0	11.218
1211.0	11.229
1212.0	11.238
1213.0	11.251
1214.0	11.271
1215.0	11.275
1216.0	11.286
1217.0	11.294
1218.0	11.291
1219.0	11.309
1220.0	11.338
1221.0	11.361
1222.0	11.369
1223.0	11.354
1224.0	11.378
1225.0	11.400
1226.0	11.424
1227.0	11.414
1228.0	11.418
1229.0	11.436
1230.0	11.469
1231.0	11.489
1232.0	11.494
1233.0	11.494
1234.0	11.518
1235.0	11.521
1236.0	11.550
1237.0	11.563
1238.0	11.588
1239.0	11.589
1240.0	11.588
1241.0	11.599
1242.0	11.605
1243.0	11.612
1244.0	11.623
1245.0	11.640
1246.0	11.664
1247.0	11.686
1248.0	11.701
1249.0	11.712
1250.0	11.734
1251.0	11.752
1252.0	11.768
1253.0	11.758
1254.0	11.784
1255.0	11.811
1256.0	11.829
1257.0	11.813
1258.0	11.808
1259.0	11.834
1260.0	11.861
1261.0	11.885
1262.0	11.883
1263.0	11.900
1264.0	11.896
1265.0	11.933
1266.0	11.943
1267.0	11.968
1268.0	11.970
1269.0	11.988
1270.0	12.004
1271.0	12.016
1272.0	12.030
1273.0	12.030
1274.0	12.053
1275.0	12.077
1276.0	12.107
1277.0	12.131
1278.0	12.151
1279.0	12.168
1280.0	12.160
1281.0	12.139
1282.0	12.134
1283.0	12.162
1284.0	12.191
1285.0	12.221
1286.0	12.217
1287.0	12.229
1288.0	12.255
1289.0	12.293
1290.0	12.324
1291.0	12.325
1292.0	12.342
1293.0	12.353
1294.0	12.371
1295.0	12.375
1296.0	12.394
1297.0	12.402
1298.0	12.417
1299.0	12.450
1300.0	12.473
1301.0	12.479
1302.0	12.464
1303.0	12.474
1304.0	12.501
1305.0	12.545
1306.0	12.585
1307.0	12.616
1308.0	12.632
1309.0	12.652
1310.0	12.689
1311.0	12.692
1312.0	12.703
1313.0	12.711
1314.0	12.740
1315.0	12.753
1316.0	12.762
1317.0	12.798
1318.0	12.830
1319.0	12.839
1320.0	12.855
1321.0	12.861
1322.0	12.882
1323.0	12.891
1324.0	12.906
1325.0	12.924
1326.0	12.947
1327.0	12.958
1328.0	12.990
1329.0	13.005
1330.0	13.035
1331.0	13.039
1332.0	13.056
1333.0	13.068
1334.0	13.084
1335.0	13.098
1336.0	13.124
1337.0	13.158
1338.0	13.183
1339.0	13.191
1340.0	13.191
1341.0	13.214
1342.0	13.236
1343.0	13.251
1344.0	13.269
1345.0	13.287
1346.0	13.315
1347.0	13.345
1348.0	13.374
1349.0	13.408
1350.0	13.401
1351.0	13.425
1352.0	13.433
1353.0	13.434
1354.0	13.440
1355.0	13.431
1356.0	13.478
1357.0	13.478
1358.0	13.502
1359.0	13.473
1360.0	13.519
1361.0	13.545
1362.0	13.579
1363.0	13.570
1364.0	13.572
1365.0	13.597
1366.0	13.636
1367.0	13.656
1368.0	13.691
1369.0	13.699
1370.0	13.763
1371.0	13.779
1372.0	13.796
1373.0	13.778
1374.0	13.774
1375.0	13.833
1376.0	13.866
1377.0	13.926
1378.0	13.905
1379.0	13.950
1380.0	13.972
1381.0	14.013
1382.0	14.047
1383.0	14.080
1384.0	14.105
1385.0	14.102
1386.0	14.119
1387.0	14.123
1388.0	14.152
1389.0	14.196
1390.0	14.219
1391.0	14.249
1392.0	14.235
1393.0	14.265
1394.0	14.282
1395.0	14.314
1396.0	14.368
1397.0	14.411
1398.0	14.472
1399.0	14.499
1400.0	14.524
1401.0	14.551
1402.0	14.582
1403.0	14.609
1404.0	14.602
1405.0	14.632
1406.0	14.687
1407.0	14.753
1408.0	14.799
1409.0	14.812
1410.0	14.853
1411.0	14.853
1412.0	14.872
1413.0	14.872
1414.0	14.898
1415.0	14.912
1416.0	14.924
1417.0	14.955
1418.0	14.988
1419.0	14.991
1420.0	15.031
1421.0	15.056
1422.0	15.124
1423.0	15.105
1424.0	15.108
1425.0	15.120
1426.0	15.166
1427.0	15.172
1428.0	15.195
1429.0	15.227
1430.0	15.277
1431.0	15.279
1432.0	15.313
1433.0	15.313
1434.0	15.347
1435.0	15.336
1436.0	15.390
1437.0	15.389
1438.0	15.397
1439.0	15.399
1440.0	15.401
1441.0	15.408
1442.0	15.405
1443.0	15.451
1444.0	15.473
1445.0	15.491
1446.0	15.482
1447.0	15.499
1448.0	15.527
1449.0	15.543
1450.0	15.577
1451.0	15.583
1452.0	15.607
1453.0	15.602
1454.0	15.635
1455.0	15.681
1456.0	15.686
1457.0	15.682
1458.0	15.685
1459.0	15.696
1460.0	15.701
1461.0	15.652
1462.0	15.683
1463.0	15.704
1464.0	15.772
1465.0	15.766
1466.0	15.748
1467.0	15.750
1468.0	15.735
1469.0	15.775
1470.0	15.741
1471.0	15.767
1472.0	15.776
1473.0	15.816
1474.0	15.850
1475.0	15.855
1476.0	15.864
1477.0	15.881
1478.0	15.883
1479.0	15.892
1480.0	15.867
1481.0	15.870
1482.0	15.874
1483.0	15.873
1484.0	15.869
1485.0	15.884
1486.0	15.896
1487.0	15.940
1488.0	15.935
1489.0	15.973
1490.0	15.954
1491.0	15.948
1492.0	15.947
1493.0	15.971
1494.0	16.002
1495.0	16.003
1496.0	15.992
1497.0	15.994
1498.0	16.008
1499.0	16.022
1500.0	15.998
1501.0	15.978
1502.0	15.991
1503.0	16.021
1504.0	16.069
1505.0	16.063
1506.0	16.076
1507.0	16.046
1508.0	16.072
1509.0	16.050
1510.0	16.067
1511.0	16.027
1512.0	16.042
1513.0	16.034
1514.0	16.055
1515.0	16.081
1516.0	16.062
1517.0	16.083
1518.0	16.085
1519.0	16.114
1520.0	16.107
1521.0	16.140
1522.0	16.183
1523.0	16.204
1524.0	16.187
1525.0	16.165
1526.0	16.165
1527.0	16.153
1528.0	16.177
1529.0	16.191
1530.0	16.177
1531.0	16.171
1532.0	16.151
1533.0	16.198
1534.0	16.180
1535.0	16.225
1536.0	16.226
1537.0	16.232
1538.0	16.217
1539.0	16.216
1540.0	16.269
1541.0	16.267
1542.0	16.266
1543.0	16.244
1544.0	16.279
1545.0	16.300
1546.0	16.296
1547.0	16.322
1548.0	16.320
1549.0	16.371
1550.0	16.356
1551.0	16.362
1552.0	16.348
1553.0	16.321
1554.0	16.375
1555.0	16.378
1556.0	16.417
1557.0	16.379
1558.0	16.370
1559.0	16.414
1560.0	16.450
1561.0	16.495
1562.0	16.466
1563.0	16.458
1564.0	16.464
1565.0	16.500
1566.0	16.499
1567.0	16.509
1568.0	16.533
1569.0	16.558
1570.0	16.541
1571.0	16.499
1572.0	16.488
1573.0	16.526
1574.0	16.544
1575.0	16.560
1576.0	16.581
1577.0	16.590
1578.0	16.595
1579.0	16.551
1580.0	16.584
1581.0	16.605
1582.0	16.647
1583.0	16.615
1584.0	16.608
1585.0	16.604
1586.0	16.638
1587.0	16.702
1588.0	16.724
1589.0	16.728
1590.0	16.679
1591.0	16.662
1592.0	16.657
1593.0	16.698
1594.0	16.747
1595.0	16.768
1596.0	16.805
1597.0	16.798
1598.0	16.795
1599.0	16.784
1600.0	16.804
