[SUMMARY]
Software Information
Software Name:	UVProbe
Version:	2.43
Mode:	Normal Mode

Data Information
Data is:	Original
Analyst:	
Date/Time:	20/03/2023 13:34:45
Comments:	

Instrument Information
Instrument Name:	SolidSpec3700
Instrument Type:	SolidSpec-3700 Series
Model (S/N):	SolidSpec3700 ( A11085100264CZ )

[METHOD]
[Measurement Properties]
Wavelength Range (nm.):	285,00 to 2000,00
Scan Speed:	Medium
Sampling Interval:	1,0
Auto Sampling Interval:	Disabled
Scan Mode:	Single

[Sample Preparation Properties]
Weight:	
Volume:	
Dilution:	
Path Length:	
Additional Information:	

[Instrument Properties]
Instrument Type:	SolidSpec-3700 Series
Measuring Mode:	Reflectance
Slit Width:	5,0 nm
Time Constant:	1,0 sec.
Source Lamp:	Auto
Light Source Change Wavelength:	282,00 nm
Detector Unit:	Integral Sphere
Detector Change Wavelength:	870,00 nm  1650,00 nm
Grating Change Wavelength:	800,00 nm
S/R Exchange:	Inverse
Detector Lock:	Auto
Slit Program:	Fixed
Beam Mode:	Double
Stair Correction:	Disable

[Attachment Properties]
Attachment:	None

[Operation]
Threshold:	0,0010000
Points:	4
InterPolate:	Disabled
Average:	Disabled

[DATA]
Wavelength	Data
285.0	5.839
286.0	5.885
287.0	5.875
288.0	5.863
289.0	5.799
290.0	5.822
291.0	5.832
292.0	5.808
293.0	5.765
294.0	5.792
295.0	5.808
296.0	5.805
297.0	5.780
298.0	5.806
299.0	5.815
300.0	5.813
301.0	5.806
302.0	5.797
303.0	5.810
304.0	5.793
305.0	5.795
306.0	5.781
307.0	5.756
308.0	5.683
309.0	5.653
310.0	5.630
311.0	5.681
312.0	5.664
313.0	5.629
314.0	5.556
315.0	5.512
316.0	5.488
317.0	5.462
318.0	5.448
319.0	5.397
320.0	5.349
321.0	5.273
322.0	5.226
323.0	5.177
324.0	5.137
325.0	5.104
326.0	5.063
327.0	5.027
328.0	4.979
329.0	4.936
330.0	4.866
331.0	4.783
332.0	4.730
333.0	4.677
334.0	4.629
335.0	4.563
336.0	4.526
337.0	4.482
338.0	4.431
339.0	4.377
340.0	4.330
341.0	4.294
342.0	4.229
343.0	4.167
344.0	4.099
345.0	4.046
346.0	4.000
347.0	3.969
348.0	3.918
349.0	3.877
350.0	3.815
351.0	3.772
352.0	3.721
353.0	3.685
354.0	3.661
355.0	3.619
356.0	3.573
357.0	3.523
358.0	3.513
359.0	3.484
360.0	3.464
361.0	3.437
362.0	3.418
363.0	3.433
364.0	3.424
365.0	3.439
366.0	3.422
367.0	3.428
368.0	3.437
369.0	3.451
370.0	3.465
371.0	3.502
372.0	3.537
373.0	3.579
374.0	3.601
375.0	3.637
376.0	3.673
377.0	3.717
378.0	3.748
379.0	3.793
380.0	3.830
381.0	3.886
382.0	3.922
383.0	3.961
384.0	4.013
385.0	4.054
386.0	4.100
387.0	4.142
388.0	4.202
389.0	4.260
390.0	4.292
391.0	4.316
392.0	4.350
393.0	4.382
394.0	4.413
395.0	4.433
396.0	4.471
397.0	4.504
398.0	4.539
399.0	4.555
400.0	4.570
401.0	4.582
402.0	4.607
403.0	4.636
404.0	4.657
405.0	4.661
406.0	4.676
407.0	4.697
408.0	4.725
409.0	4.739
410.0	4.755
411.0	4.773
412.0	4.790
413.0	4.807
414.0	4.832
415.0	4.852
416.0	4.859
417.0	4.866
418.0	4.888
419.0	4.895
420.0	4.913
421.0	4.914
422.0	4.924
423.0	4.923
424.0	4.926
425.0	4.947
426.0	4.942
427.0	4.942
428.0	4.935
429.0	4.934
430.0	4.919
431.0	4.894
432.0	4.878
433.0	4.865
434.0	4.851
435.0	4.838
436.0	4.828
437.0	4.808
438.0	4.776
439.0	4.755
440.0	4.738
441.0	4.722
442.0	4.700
443.0	4.694
444.0	4.697
445.0	4.688
446.0	4.681
447.0	4.672
448.0	4.667
449.0	4.661
450.0	4.655
451.0	4.668
452.0	4.679
453.0	4.684
454.0	4.681
455.0	4.683
456.0	4.689
457.0	4.704
458.0	4.720
459.0	4.736
460.0	4.744
461.0	4.760
462.0	4.770
463.0	4.788
464.0	4.798
465.0	4.814
466.0	4.822
467.0	4.837
468.0	4.856
469.0	4.880
470.0	4.899
471.0	4.922
472.0	4.940
473.0	4.968
474.0	4.995
475.0	5.016
476.0	5.026
477.0	5.040
478.0	5.058
479.0	5.086
480.0	5.101
481.0	5.125
482.0	5.130
483.0	5.153
484.0	5.163
485.0	5.181
486.0	5.196
487.0	5.211
488.0	5.226
489.0	5.241
490.0	5.255
491.0	5.280
492.0	5.283
493.0	5.295
494.0	5.304
495.0	5.328
496.0	5.339
497.0	5.345
498.0	5.352
499.0	5.373
500.0	5.395
501.0	5.408
502.0	5.414
503.0	5.414
504.0	5.427
505.0	5.428
506.0	5.428
507.0	5.426
508.0	5.435
509.0	5.440
510.0	5.440
511.0	5.439
512.0	5.439
513.0	5.427
514.0	5.425
515.0	5.416
516.0	5.430
517.0	5.418
518.0	5.422
519.0	5.401
520.0	5.401
521.0	5.387
522.0	5.381
523.0	5.375
524.0	5.365
525.0	5.354
526.0	5.331
527.0	5.313
528.0	5.295
529.0	5.286
530.0	5.279
531.0	5.266
532.0	5.245
533.0	5.223
534.0	5.204
535.0	5.183
536.0	5.166
537.0	5.151
538.0	5.144
539.0	5.137
540.0	5.112
541.0	5.092
542.0	5.067
543.0	5.067
544.0	5.058
545.0	5.042
546.0	5.020
547.0	5.005
548.0	4.993
549.0	4.991
550.0	4.973
551.0	4.971
552.0	4.958
553.0	4.950
554.0	4.943
555.0	4.934
556.0	4.928
557.0	4.914
558.0	4.909
559.0	4.898
560.0	4.900
561.0	4.897
562.0	4.905
563.0	4.893
564.0	4.890
565.0	4.882
566.0	4.891
567.0	4.896
568.0	4.901
569.0	4.896
570.0	4.893
571.0	4.889
572.0	4.891
573.0	4.891
574.0	4.894
575.0	4.898
576.0	4.897
577.0	4.898
578.0	4.903
579.0	4.912
580.0	4.918
581.0	4.923
582.0	4.939
583.0	4.960
584.0	4.972
585.0	4.987
586.0	4.997
587.0	5.011
588.0	5.021
589.0	5.043
590.0	5.069
591.0	5.089
592.0	5.107
593.0	5.127
594.0	5.158
595.0	5.187
596.0	5.205
597.0	5.219
598.0	5.238
599.0	5.263
600.0	5.285
601.0	5.305
602.0	5.330
603.0	5.353
604.0	5.379
605.0	5.404
606.0	5.439
607.0	5.467
608.0	5.495
609.0	5.517
610.0	5.539
611.0	5.569
612.0	5.601
613.0	5.641
614.0	5.667
615.0	5.691
616.0	5.716
617.0	5.746
618.0	5.787
619.0	5.819
620.0	5.869
621.0	5.893
622.0	5.935
623.0	5.950
624.0	5.993
625.0	6.008
626.0	6.051
627.0	6.093
628.0	6.150
629.0	6.198
630.0	6.220
631.0	6.249
632.0	6.281
633.0	6.327
634.0	6.366
635.0	6.398
636.0	6.427
637.0	6.464
638.0	6.510
639.0	6.552
640.0	6.594
641.0	6.638
642.0	6.676
643.0	6.709
644.0	6.731
645.0	6.783
646.0	6.815
647.0	6.865
648.0	6.896
649.0	6.941
650.0	6.977
651.0	7.012
652.0	7.063
653.0	7.106
654.0	7.143
655.0	7.160
656.0	7.191
657.0	7.233
658.0	7.272
659.0	7.310
660.0	7.344
661.0	7.377
662.0	7.404
663.0	7.441
664.0	7.473
665.0	7.507
666.0	7.545
667.0	7.587
668.0	7.627
669.0	7.658
670.0	7.707
671.0	7.766
672.0	7.810
673.0	7.866
674.0	7.891
675.0	7.938
676.0	7.956
677.0	8.005
678.0	8.053
679.0	8.094
680.0	8.130
681.0	8.137
682.0	8.174
683.0	8.208
684.0	8.254
685.0	8.274
686.0	8.316
687.0	8.350
688.0	8.382
689.0	8.391
690.0	8.422
691.0	8.467
692.0	8.525
693.0	8.545
694.0	8.581
695.0	8.609
696.0	8.656
697.0	8.657
698.0	8.682
699.0	8.709
700.0	8.765
701.0	8.787
702.0	8.822
703.0	8.846
704.0	8.877
705.0	8.901
706.0	8.936
707.0	8.976
708.0	9.002
709.0	9.023
710.0	9.044
711.0	9.059
712.0	9.077
713.0	9.102
714.0	9.119
715.0	9.158
716.0	9.189
717.0	9.239
718.0	9.255
719.0	9.269
720.0	9.280
721.0	9.321
722.0	9.370
723.0	9.419
724.0	9.461
725.0	9.490
726.0	9.535
727.0	9.554
728.0	9.598
729.0	9.619
730.0	9.646
731.0	9.655
732.0	9.663
733.0	9.687
734.0	9.723
735.0	9.756
736.0	9.769
737.0	9.816
738.0	9.848
739.0	9.907
740.0	9.922
741.0	9.971
742.0	10.009
743.0	10.069
744.0	10.112
745.0	10.124
746.0	10.117
747.0	10.144
748.0	10.202
749.0	10.224
750.0	10.238
751.0	10.251
752.0	10.295
753.0	10.325
754.0	10.390
755.0	10.439
756.0	10.466
757.0	10.479
758.0	10.527
759.0	10.575
760.0	10.613
761.0	10.627
762.0	10.644
763.0	10.658
764.0	10.695
765.0	10.739
766.0	10.795
767.0	10.806
768.0	10.828
769.0	10.829
770.0	10.901
771.0	10.923
772.0	10.953
773.0	10.921
774.0	10.973
775.0	10.995
776.0	11.042
777.0	11.064
778.0	11.088
779.0	11.109
780.0	11.105
781.0	11.140
782.0	11.151
783.0	11.166
784.0	11.201
785.0	11.229
786.0	11.275
787.0	11.288
788.0	11.334
789.0	11.356
790.0	11.350
791.0	11.356
792.0	11.386
793.0	11.420
794.0	11.415
795.0	11.410
796.0	11.412
797.0	11.420
798.0	11.481
799.0	11.516
800.0	11.570
801.0	11.586
802.0	11.620
803.0	11.655
804.0	11.669
805.0	11.690
806.0	11.712
807.0	11.734
808.0	11.762
809.0	11.776
810.0	11.784
811.0	11.803
812.0	11.833
813.0	11.877
814.0	11.920
815.0	11.970
816.0	11.990
817.0	12.012
818.0	12.019
819.0	12.048
820.0	12.066
821.0	12.099
822.0	12.145
823.0	12.173
824.0	12.163
825.0	12.168
826.0	12.204
827.0	12.254
828.0	12.273
829.0	12.293
830.0	12.309
831.0	12.331
832.0	12.372
833.0	12.406
834.0	12.459
835.0	12.483
836.0	12.498
837.0	12.508
838.0	12.529
839.0	12.586
840.0	12.601
841.0	12.597
842.0	12.581
843.0	12.626
844.0	12.669
845.0	12.725
846.0	12.714
847.0	12.760
848.0	12.751
849.0	12.781
850.0	12.766
851.0	12.800
852.0	12.830
853.0	12.830
854.0	12.855
855.0	12.882
856.0	12.951
857.0	12.979
858.0	12.979
859.0	13.026
860.0	12.987
861.0	13.006
862.0	13.016
863.0	13.127
864.0	13.235
865.0	13.272
866.0	13.275
867.0	13.225
868.0	13.168
869.0	13.177
870.0	13.161
871.0	13.632
872.0	13.894
873.0	14.128
874.0	13.929
875.0	13.908
876.0	13.967
877.0	13.994
878.0	13.865
879.0	13.712
880.0	13.497
881.0	13.469
882.0	13.630
883.0	13.881
884.0	14.219
885.0	14.290
886.0	14.442
887.0	14.373
888.0	14.219
889.0	14.034
890.0	13.894
891.0	13.844
892.0	13.761
893.0	13.908
894.0	13.903
895.0	14.179
896.0	13.995
897.0	14.169
898.0	13.941
899.0	13.953
900.0	13.999
901.0	14.053
902.0	14.127
903.0	14.173
904.0	14.128
905.0	14.074
906.0	13.879
907.0	13.941
908.0	14.033
909.0	14.104
910.0	13.996
911.0	14.032
912.0	13.944
913.0	14.105
914.0	14.059
915.0	14.130
916.0	14.072
917.0	14.022
918.0	13.970
919.0	14.033
920.0	14.095
921.0	14.205
922.0	14.111
923.0	14.060
924.0	13.940
925.0	13.919
926.0	13.887
927.0	14.066
928.0	14.169
929.0	14.262
930.0	14.129
931.0	14.047
932.0	14.048
933.0	14.087
934.0	14.113
935.0	14.069
936.0	14.111
937.0	14.140
938.0	14.132
939.0	14.117
940.0	14.078
941.0	14.090
942.0	14.112
943.0	14.196
944.0	14.192
945.0	14.231
946.0	14.198
947.0	14.193
948.0	14.145
949.0	14.144
950.0	14.199
951.0	14.164
952.0	14.132
953.0	14.117
954.0	14.127
955.0	14.155
956.0	14.177
957.0	14.226
958.0	14.206
959.0	14.173
960.0	14.119
961.0	14.138
962.0	14.126
963.0	14.160
964.0	14.115
965.0	14.137
966.0	14.118
967.0	14.133
968.0	14.130
969.0	14.133
970.0	14.150
971.0	14.154
972.0	14.188
973.0	14.203
974.0	14.218
975.0	14.181
976.0	14.173
977.0	14.155
978.0	14.163
979.0	14.144
980.0	14.103
981.0	14.112
982.0	14.123
983.0	14.147
984.0	14.092
985.0	14.028
986.0	14.002
987.0	14.015
988.0	14.071
989.0	14.109
990.0	14.111
991.0	14.107
992.0	14.121
993.0	14.141
994.0	14.115
995.0	14.076
996.0	14.087
997.0	14.125
998.0	14.148
999.0	14.135
1000.0	14.108
1001.0	14.091
1002.0	14.075
1003.0	14.082
1004.0	14.056
1005.0	14.065
1006.0	14.069
1007.0	14.088
1008.0	14.071
1009.0	14.053
1010.0	14.040
1011.0	14.061
1012.0	14.081
1013.0	14.111
1014.0	14.110
1015.0	14.087
1016.0	14.062
1017.0	14.041
1018.0	14.033
1019.0	14.047
1020.0	14.056
1021.0	14.073
1022.0	14.059
1023.0	14.034
1024.0	14.054
1025.0	14.040
1026.0	14.080
1027.0	14.048
1028.0	14.066
1029.0	14.016
1030.0	14.022
1031.0	13.999
1032.0	13.991
1033.0	13.998
1034.0	14.012
1035.0	14.031
1036.0	14.003
1037.0	14.009
1038.0	14.016
1039.0	14.027
1040.0	14.029
1041.0	14.000
1042.0	13.991
1043.0	13.966
1044.0	14.000
1045.0	14.016
1046.0	14.017
1047.0	14.035
1048.0	14.005
1049.0	14.011
1050.0	13.975
1051.0	13.982
1052.0	13.981
1053.0	13.984
1054.0	13.980
1055.0	13.979
1056.0	13.976
1057.0	13.977
1058.0	13.980
1059.0	14.001
1060.0	13.997
1061.0	13.988
1062.0	13.967
1063.0	13.955
1064.0	13.964
1065.0	13.985
1066.0	13.983
1067.0	13.964
1068.0	13.940
1069.0	13.948
1070.0	13.959
1071.0	13.955
1072.0	13.966
1073.0	13.967
1074.0	13.958
1075.0	13.960
1076.0	13.952
1077.0	13.959
1078.0	13.952
1079.0	13.963
1080.0	13.955
1081.0	13.948
1082.0	13.934
1083.0	13.945
1084.0	13.960
1085.0	13.960
1086.0	13.967
1087.0	13.946
1088.0	13.945
1089.0	13.929
1090.0	13.950
1091.0	13.962
1092.0	13.980
1093.0	13.955
1094.0	13.950
1095.0	13.958
1096.0	13.968
1097.0	13.964
1098.0	13.940
1099.0	13.931
1100.0	13.950
1101.0	13.948
1102.0	13.952
1103.0	13.934
1104.0	13.930
1105.0	13.927
1106.0	13.925
1107.0	13.935
1108.0	13.940
1109.0	13.936
1110.0	13.919
1111.0	13.924
1112.0	13.928
1113.0	13.947
1114.0	13.952
1115.0	13.966
1116.0	13.963
1117.0	13.953
1118.0	13.950
1119.0	13.950
1120.0	13.971
1121.0	13.962
1122.0	13.973
1123.0	13.985
1124.0	13.983
1125.0	13.985
1126.0	13.965
1127.0	13.983
1128.0	13.993
1129.0	14.003
1130.0	14.025
1131.0	14.018
1132.0	14.029
1133.0	14.022
1134.0	14.037
1135.0	14.048
1136.0	14.054
1137.0	14.061
1138.0	14.069
1139.0	14.076
1140.0	14.078
1141.0	14.091
1142.0	14.090
1143.0	14.094
1144.0	14.088
1145.0	14.130
1146.0	14.145
1147.0	14.139
1148.0	14.112
1149.0	14.126
1150.0	14.149
1151.0	14.158
1152.0	14.145
1153.0	14.147
1154.0	14.161
1155.0	14.182
1156.0	14.189
1157.0	14.200
1158.0	14.206
1159.0	14.216
1160.0	14.238
1161.0	14.253
1162.0	14.268
1163.0	14.266
1164.0	14.271
1165.0	14.288
1166.0	14.278
1167.0	14.304
1168.0	14.307
1169.0	14.351
1170.0	14.347
1171.0	14.365
1172.0	14.369
1173.0	14.388
1174.0	14.406
1175.0	14.407
1176.0	14.412
1177.0	14.408
1178.0	14.409
1179.0	14.426
1180.0	14.421
1181.0	14.427
1182.0	14.442
1183.0	14.481
1184.0	14.517
1185.0	14.529
1186.0	14.536
1187.0	14.541
1188.0	14.556
1189.0	14.579
1190.0	14.598
1191.0	14.607
1192.0	14.610
1193.0	14.621
1194.0	14.636
1195.0	14.649
1196.0	14.659
1197.0	14.692
1198.0	14.710
1199.0	14.730
1200.0	14.738
1201.0	14.741
1202.0	14.757
1203.0	14.758
1204.0	14.789
1205.0	14.808
1206.0	14.822
1207.0	14.850
1208.0	14.889
1209.0	14.903
1210.0	14.896
1211.0	14.896
1212.0	14.928
1213.0	14.948
1214.0	14.951
1215.0	14.971
1216.0	14.994
1217.0	15.024
1218.0	15.022
1219.0	15.042
1220.0	15.055
1221.0	15.086
1222.0	15.111
1223.0	15.124
1224.0	15.133
1225.0	15.154
1226.0	15.192
1227.0	15.207
1228.0	15.218
1229.0	15.233
1230.0	15.255
1231.0	15.272
1232.0	15.287
1233.0	15.293
1234.0	15.306
1235.0	15.335
1236.0	15.378
1237.0	15.396
1238.0	15.420
1239.0	15.448
1240.0	15.471
1241.0	15.493
1242.0	15.507
1243.0	15.527
1244.0	15.536
1245.0	15.550
1246.0	15.572
1247.0	15.580
1248.0	15.593
1249.0	15.611
1250.0	15.647
1251.0	15.672
1252.0	15.707
1253.0	15.723
1254.0	15.747
1255.0	15.746
1256.0	15.755
1257.0	15.776
1258.0	15.802
1259.0	15.823
1260.0	15.849
1261.0	15.866
1262.0	15.884
1263.0	15.892
1264.0	15.914
1265.0	15.935
1266.0	15.962
1267.0	15.992
1268.0	16.019
1269.0	16.033
1270.0	16.048
1271.0	16.071
1272.0	16.093
1273.0	16.102
1274.0	16.116
1275.0	16.140
1276.0	16.175
1277.0	16.194
1278.0	16.213
1279.0	16.234
1280.0	16.246
1281.0	16.271
1282.0	16.282
1283.0	16.314
1284.0	16.328
1285.0	16.364
1286.0	16.376
1287.0	16.418
1288.0	16.417
1289.0	16.457
1290.0	16.456
1291.0	16.480
1292.0	16.493
1293.0	16.521
1294.0	16.553
1295.0	16.577
1296.0	16.595
1297.0	16.613
1298.0	16.636
1299.0	16.658
1300.0	16.686
1301.0	16.689
1302.0	16.702
1303.0	16.735
1304.0	16.764
1305.0	16.803
1306.0	16.812
1307.0	16.852
1308.0	16.902
1309.0	16.946
1310.0	16.977
1311.0	16.993
1312.0	17.011
1313.0	17.016
1314.0	17.046
1315.0	17.074
1316.0	17.129
1317.0	17.121
1318.0	17.150
1319.0	17.183
1320.0	17.261
1321.0	17.277
1322.0	17.262
1323.0	17.234
1324.0	17.274
1325.0	17.316
1326.0	17.381
1327.0	17.373
1328.0	17.393
1329.0	17.390
1330.0	17.430
1331.0	17.458
1332.0	17.496
1333.0	17.505
1334.0	17.542
1335.0	17.560
1336.0	17.630
1337.0	17.642
1338.0	17.684
1339.0	17.663
1340.0	17.695
1341.0	17.720
1342.0	17.767
1343.0	17.765
1344.0	17.777
1345.0	17.780
1346.0	17.794
1347.0	17.791
1348.0	17.811
1349.0	17.842
1350.0	17.904
1351.0	17.927
1352.0	17.980
1353.0	17.974
1354.0	18.000
1355.0	17.995
1356.0	18.013
1357.0	18.056
1358.0	18.091
1359.0	18.109
1360.0	18.092
1361.0	18.106
1362.0	18.142
1363.0	18.170
1364.0	18.187
1365.0	18.231
1366.0	18.295
1367.0	18.332
1368.0	18.311
1369.0	18.318
1370.0	18.351
1371.0	18.419
1372.0	18.443
1373.0	18.456
1374.0	18.483
1375.0	18.527
1376.0	18.578
1377.0	18.609
1378.0	18.634
1379.0	18.648
1380.0	18.669
1381.0	18.692
1382.0	18.735
1383.0	18.782
1384.0	18.803
1385.0	18.824
1386.0	18.864
1387.0	18.939
1388.0	18.978
1389.0	18.998
1390.0	19.030
1391.0	19.071
1392.0	19.093
1393.0	19.106
1394.0	19.143
1395.0	19.205
1396.0	19.269
1397.0	19.297
1398.0	19.327
1399.0	19.335
1400.0	19.360
1401.0	19.409
1402.0	19.449
1403.0	19.503
1404.0	19.538
1405.0	19.582
1406.0	19.637
1407.0	19.655
1408.0	19.714
1409.0	19.756
1410.0	19.801
1411.0	19.816
1412.0	19.815
1413.0	19.854
1414.0	19.911
1415.0	19.978
1416.0	20.006
1417.0	20.034
1418.0	20.073
1419.0	20.097
1420.0	20.098
1421.0	20.144
1422.0	20.185
1423.0	20.225
1424.0	20.227
1425.0	20.211
1426.0	20.250
1427.0	20.273
1428.0	20.313
1429.0	20.332
1430.0	20.316
1431.0	20.386
1432.0	20.408
1433.0	20.452
1434.0	20.427
1435.0	20.457
1436.0	20.497
1437.0	20.536
1438.0	20.530
1439.0	20.532
1440.0	20.526
1441.0	20.543
1442.0	20.598
1443.0	20.651
1444.0	20.692
1445.0	20.670
1446.0	20.670
1447.0	20.642
1448.0	20.662
1449.0	20.663
1450.0	20.738
1451.0	20.775
1452.0	20.816
1453.0	20.800
1454.0	20.804
1455.0	20.826
1456.0	20.878
1457.0	20.913
1458.0	20.953
1459.0	20.941
1460.0	20.924
1461.0	20.910
1462.0	20.935
1463.0	20.948
1464.0	20.959
1465.0	20.968
1466.0	20.973
1467.0	21.010
1468.0	20.975
1469.0	20.977
1470.0	20.963
1471.0	20.997
1472.0	21.024
1473.0	21.040
1474.0	21.049
1475.0	21.062
1476.0	21.067
1477.0	21.090
1478.0	21.141
1479.0	21.113
1480.0	21.097
1481.0	21.073
1482.0	21.094
1483.0	21.104
1484.0	21.078
1485.0	21.096
1486.0	21.096
1487.0	21.106
1488.0	21.116
1489.0	21.142
1490.0	21.142
1491.0	21.144
1492.0	21.169
1493.0	21.204
1494.0	21.219
1495.0	21.218
1496.0	21.206
1497.0	21.203
1498.0	21.204
1499.0	21.226
1500.0	21.253
1501.0	21.247
1502.0	21.267
1503.0	21.245
1504.0	21.240
1505.0	21.241
1506.0	21.281
1507.0	21.305
1508.0	21.297
1509.0	21.289
1510.0	21.258
1511.0	21.248
1512.0	21.233
1513.0	21.284
1514.0	21.333
1515.0	21.363
1516.0	21.368
1517.0	21.359
1518.0	21.349
1519.0	21.367
1520.0	21.345
1521.0	21.348
1522.0	21.312
1523.0	21.347
1524.0	21.362
1525.0	21.371
1526.0	21.372
1527.0	21.372
1528.0	21.376
1529.0	21.394
1530.0	21.407
1531.0	21.419
1532.0	21.425
1533.0	21.378
1534.0	21.380
1535.0	21.379
1536.0	21.421
1537.0	21.442
1538.0	21.442
1539.0	21.475
1540.0	21.470
1541.0	21.471
1542.0	21.494
1543.0	21.527
1544.0	21.532
1545.0	21.479
1546.0	21.479
1547.0	21.490
1548.0	21.537
1549.0	21.565
1550.0	21.620
1551.0	21.625
1552.0	21.602
1553.0	21.537
1554.0	21.538
1555.0	21.561
1556.0	21.611
1557.0	21.637
1558.0	21.646
1559.0	21.679
1560.0	21.704
1561.0	21.698
1562.0	21.688
1563.0	21.673
1564.0	21.656
1565.0	21.653
1566.0	21.673
1567.0	21.670
1568.0	21.675
1569.0	21.662
1570.0	21.657
1571.0	21.646
1572.0	21.667
1573.0	21.718
1574.0	21.775
1575.0	21.791
1576.0	21.827
1577.0	21.827
1578.0	21.828
1579.0	21.827
1580.0	21.841
1581.0	21.814
1582.0	21.866
1583.0	21.905
1584.0	21.930
1585.0	21.881
1586.0	21.848
1587.0	21.897
1588.0	21.904
1589.0	21.926
1590.0	21.973
1591.0	21.970
1592.0	22.050
1593.0	22.014
1594.0	22.040
1595.0	21.966
1596.0	21.969
1597.0	21.943
1598.0	21.923
1599.0	21.942
1600.0	21.977
1601.0	22.055
1602.0	22.066
1603.0	22.091
1604.0	22.045
1605.0	22.033
1606.0	22.060
1607.0	22.086
1608.0	22.093
1609.0	22.090
1610.0	22.091
1611.0	22.108
1612.0	22.064
1613.0	22.094
1614.0	22.079
1615.0	22.157
1616.0	22.180
1617.0	22.201
1618.0	22.187
1619.0	22.145
1620.0	22.144
1621.0	22.119
1622.0	22.137
1623.0	22.165
1624.0	22.212
1625.0	22.248
1626.0	22.251
1627.0	22.288
1628.0	22.301
1629.0	22.283
1630.0	22.240
1631.0	22.261
1632.0	22.296
1633.0	22.346
1634.0	22.328
1635.0	22.347
1636.0	22.318
1637.0	22.351
1638.0	22.311
1639.0	22.337
1640.0	22.309
1641.0	22.358
1642.0	22.374
1643.0	22.451
1644.0	22.426
1645.0	22.414
1646.0	22.359
1647.0	22.415
1648.0	22.430
1649.0	22.436
1650.0	21.623
1651.0	20.408
1652.0	19.558
1653.0	19.551
1654.0	19.795
1655.0	19.481
1656.0	18.979
1657.0	18.706
1658.0	18.908
1659.0	19.046
1660.0	19.598
1661.0	20.065
1662.0	20.140
1663.0	19.928
1664.0	19.596
1665.0	19.602
1666.0	19.565
1667.0	19.427
1668.0	19.426
1669.0	19.142
1670.0	19.048
1671.0	19.082
1672.0	19.753
1673.0	19.963
1674.0	20.035
1675.0	19.886
1676.0	19.945
1677.0	20.111
1678.0	19.750
1679.0	19.560
1680.0	19.535
1681.0	19.933
1682.0	20.151
1683.0	20.070
1684.0	19.882
1685.0	20.069
1686.0	20.410
1687.0	20.527
1688.0	20.790
1689.0	20.269
1690.0	19.789
1691.0	19.032
1692.0	18.906
1693.0	19.436
1694.0	19.599
1695.0	19.837
1696.0	19.573
1697.0	19.642
1698.0	19.991
1699.0	20.050
1700.0	19.939
1701.0	19.572
1702.0	19.286
1703.0	19.151
1704.0	18.960
1705.0	19.449
1706.0	19.871
1707.0	20.127
1708.0	20.002
1709.0	19.864
1710.0	19.616
1711.0	20.002
1712.0	20.403
1713.0	20.366
1714.0	20.396
1715.0	19.740
1716.0	19.981
1717.0	19.479
1718.0	19.882
1719.0	20.074
1720.0	19.850
1721.0	20.023
1722.0	19.510
1723.0	19.429
1724.0	19.082
1725.0	19.349
1726.0	19.657
1727.0	19.649
1728.0	20.164
1729.0	20.114
1730.0	20.120
1731.0	20.483
1732.0	20.500
1733.0	20.793
1734.0	20.484
1735.0	20.755
1736.0	20.612
1737.0	20.133
1738.0	19.759
1739.0	19.746
1740.0	20.132
1741.0	20.419
1742.0	20.072
1743.0	19.671
1744.0	19.630
1745.0	19.902
1746.0	20.118
1747.0	20.262
1748.0	20.474
1749.0	21.025
1750.0	21.327
1751.0	21.489
1752.0	20.714
1753.0	20.492
1754.0	19.952
1755.0	20.213
1756.0	20.570
1757.0	20.523
1758.0	20.682
1759.0	20.607
1760.0	20.786
1761.0	20.386
1762.0	19.829
1763.0	20.585
1764.0	21.047
1765.0	20.847
1766.0	19.989
1767.0	20.138
1768.0	20.870
1769.0	20.595
1770.0	20.464
1771.0	19.998
1772.0	20.987
1773.0	20.637
1774.0	20.312
1775.0	19.136
1776.0	19.481
1777.0	20.371
1778.0	20.822
1779.0	20.522
1780.0	20.402
1781.0	20.550
1782.0	20.455
1783.0	19.584
1784.0	19.182
1785.0	19.508
1786.0	20.383
1787.0	21.306
1788.0	21.714
1789.0	21.686
1790.0	21.080
1791.0	21.041
1792.0	20.083
1793.0	19.732
1794.0	19.488
1795.0	19.737
1796.0	20.448
1797.0	20.235
1798.0	21.008
1799.0	21.406
1800.0	21.465
1801.0	20.857
1802.0	20.473
1803.0	20.663
1804.0	20.402
1805.0	19.886
1806.0	19.267
1807.0	19.664
1808.0	20.134
1809.0	21.232
1810.0	21.454
1811.0	21.279
1812.0	21.070
1813.0	21.509
1814.0	21.174
1815.0	20.590
1816.0	19.929
1817.0	20.881
1818.0	19.552
1819.0	19.633
1820.0	19.082
1821.0	20.111
1822.0	20.423
1823.0	20.666
1824.0	20.832
1825.0	20.606
1826.0	20.391
1827.0	21.413
1828.0	22.030
1829.0	21.792
1830.0	21.620
1831.0	21.928
1832.0	23.120
1833.0	21.424
1834.0	20.766
1835.0	20.636
1836.0	20.665
1837.0	21.290
1838.0	20.579
1839.0	21.250
1840.0	20.232
1841.0	19.518
1842.0	19.775
1843.0	19.836
1844.0	20.744
1845.0	21.663
1846.0	21.631
1847.0	21.488
1848.0	20.528
1849.0	21.066
1850.0	21.301
1851.0	20.873
1852.0	20.057
1853.0	19.436
1854.0	20.418
1855.0	20.780
1856.0	21.258
1857.0	20.732
1858.0	21.745
1859.0	21.610
1860.0	22.330
1861.0	21.383
1862.0	20.919
1863.0	20.818
1864.0	20.850
1865.0	21.761
1866.0	21.129
1867.0	20.840
1868.0	21.338
1869.0	20.741
1870.0	21.304
1871.0	21.925
1872.0	24.323
1873.0	23.590
1874.0	22.695
1875.0	21.166
1876.0	22.028
1877.0	22.005
1878.0	21.528
1879.0	22.117
1880.0	21.409
1881.0	22.525
1882.0	21.334
1883.0	21.844
1884.0	22.224
1885.0	21.811
1886.0	21.464
1887.0	21.089
1888.0	22.956
1889.0	23.461
1890.0	24.252
1891.0	23.495
1892.0	22.537
1893.0	21.725
1894.0	21.818
1895.0	23.315
1896.0	23.879
1897.0	24.757
1898.0	23.708
1899.0	23.054
1900.0	22.782
1901.0	23.531
1902.0	24.664
1903.0	23.806
1904.0	23.298
1905.0	22.456
1906.0	22.818
1907.0	23.418
1908.0	23.981
1909.0	24.285
1910.0	24.864
1911.0	23.281
1912.0	23.354
1913.0	23.172
1914.0	24.856
1915.0	23.868
1916.0	23.262
1917.0	23.261
1918.0	23.536
1919.0	24.155
1920.0	23.004
1921.0	24.464
1922.0	24.757
1923.0	25.920
1924.0	25.641
1925.0	24.414
1926.0	23.621
1927.0	22.181
1928.0	23.778
1929.0	24.748
1930.0	27.165
1931.0	25.622
1932.0	24.451
1933.0	23.500
1934.0	24.451
1935.0	24.567
1936.0	24.498
1937.0	24.890
1938.0	25.245
1939.0	24.260
1940.0	24.358
1941.0	24.776
1942.0	25.690
1943.0	25.717
1944.0	26.387
1945.0	26.205
1946.0	25.803
1947.0	25.375
1948.0	23.719
1949.0	21.663
1950.0	21.367
1951.0	23.001
1952.0	24.174
1953.0	24.704
1954.0	24.527
1955.0	25.124
1956.0	25.110
1957.0	24.814
1958.0	24.163
1959.0	23.744
1960.0	24.500
1961.0	25.638
1962.0	25.069
1963.0	25.861
1964.0	26.036
1965.0	26.316
1966.0	25.889
1967.0	26.140
1968.0	25.627
1969.0	24.885
1970.0	23.080
1971.0	23.612
1972.0	23.305
1973.0	24.020
1974.0	24.560
1975.0	25.419
1976.0	25.279
1977.0	24.846
1978.0	24.334
1979.0	25.174
1980.0	24.987
1981.0	25.302
1982.0	25.456
1983.0	25.338
1984.0	25.310
1985.0	24.585
1986.0	23.821
1987.0	23.322
1988.0	24.208
1989.0	24.951
1990.0	24.988
1991.0	23.399
1992.0	22.367
1993.0	22.244
1994.0	22.821
1995.0	23.982
1996.0	24.540
1997.0	23.472
1998.0	22.679
1999.0	20.935
2000.0	20.574
