[SUMMARY]
Software Information
Software Name:	UVProbe
Version:	2.43
Mode:	Normal Mode

Data Information
Data is:	Original
Analyst:	
Date/Time:	20/03/2023 13:43:09
Comments:	

Instrument Information
Instrument Name:	SolidSpec3700
Instrument Type:	SolidSpec-3700 Series
Model (S/N):	SolidSpec3700 ( A11085100264CZ )

[METHOD]
[Measurement Properties]
Wavelength Range (nm.):	285,00 to 2000,00
Scan Speed:	Medium
Sampling Interval:	1,0
Auto Sampling Interval:	Disabled
Scan Mode:	Single

[Sample Preparation Properties]
Weight:	
Volume:	
Dilution:	
Path Length:	
Additional Information:	

[Instrument Properties]
Instrument Type:	SolidSpec-3700 Series
Measuring Mode:	Reflectance
Slit Width:	5,0 nm
Time Constant:	1,0 sec.
Source Lamp:	Auto
Light Source Change Wavelength:	282,00 nm
Detector Unit:	Integral Sphere
Detector Change Wavelength:	870,00 nm  1650,00 nm
Grating Change Wavelength:	800,00 nm
S/R Exchange:	Inverse
Detector Lock:	Auto
Slit Program:	Fixed
Beam Mode:	Double
Stair Correction:	Disable

[Attachment Properties]
Attachment:	None

[Operation]
Threshold:	0,0010000
Points:	4
InterPolate:	Disabled
Average:	Disabled

[DATA]
Wavelength	Data
285.0	5.665
286.0	5.660
287.0	5.644
288.0	5.650
289.0	5.667
290.0	5.685
291.0	5.709
292.0	5.725
293.0	5.766
294.0	5.814
295.0	5.847
296.0	5.884
297.0	5.888
298.0	5.935
299.0	5.972
300.0	6.026
301.0	6.030
302.0	6.073
303.0	6.079
304.0	6.036
305.0	5.958
306.0	5.946
307.0	5.987
308.0	6.031
309.0	6.008
310.0	5.962
311.0	5.949
312.0	5.969
313.0	5.986
314.0	5.924
315.0	5.841
316.0	5.795
317.0	5.750
318.0	5.732
319.0	5.674
320.0	5.636
321.0	5.595
322.0	5.592
323.0	5.566
324.0	5.512
325.0	5.442
326.0	5.359
327.0	5.281
328.0	5.215
329.0	5.181
330.0	5.161
331.0	5.115
332.0	5.068
333.0	5.022
334.0	4.966
335.0	4.931
336.0	4.848
337.0	4.808
338.0	4.717
339.0	4.689
340.0	4.655
341.0	4.614
342.0	4.562
343.0	4.512
344.0	4.482
345.0	4.435
346.0	4.393
347.0	4.358
348.0	4.323
349.0	4.276
350.0	4.264
351.0	4.253
352.0	4.227
353.0	4.181
354.0	4.156
355.0	4.131
356.0	4.099
357.0	4.072
358.0	4.071
359.0	4.062
360.0	4.038
361.0	4.015
362.0	4.004
363.0	3.994
364.0	3.994
365.0	4.001
366.0	3.998
367.0	3.981
368.0	3.967
369.0	3.968
370.0	3.974
371.0	3.991
372.0	3.999
373.0	4.020
374.0	4.045
375.0	4.077
376.0	4.089
377.0	4.104
378.0	4.124
379.0	4.160
380.0	4.189
381.0	4.207
382.0	4.233
383.0	4.259
384.0	4.288
385.0	4.303
386.0	4.336
387.0	4.367
388.0	4.406
389.0	4.423
390.0	4.449
391.0	4.479
392.0	4.506
393.0	4.535
394.0	4.553
395.0	4.578
396.0	4.588
397.0	4.603
398.0	4.615
399.0	4.637
400.0	4.658
401.0	4.667
402.0	4.680
403.0	4.687
404.0	4.698
405.0	4.711
406.0	4.713
407.0	4.735
408.0	4.745
409.0	4.767
410.0	4.773
411.0	4.789
412.0	4.791
413.0	4.810
414.0	4.808
415.0	4.835
416.0	4.839
417.0	4.849
418.0	4.848
419.0	4.853
420.0	4.862
421.0	4.871
422.0	4.882
423.0	4.889
424.0	4.880
425.0	4.882
426.0	4.871
427.0	4.873
428.0	4.869
429.0	4.884
430.0	4.895
431.0	4.896
432.0	4.902
433.0	4.901
434.0	4.903
435.0	4.911
436.0	4.930
437.0	4.962
438.0	4.976
439.0	4.985
440.0	4.993
441.0	5.017
442.0	5.046
443.0	5.074
444.0	5.101
445.0	5.139
446.0	5.171
447.0	5.197
448.0	5.219
449.0	5.249
450.0	5.286
451.0	5.328
452.0	5.368
453.0	5.405
454.0	5.442
455.0	5.477
456.0	5.514
457.0	5.540
458.0	5.576
459.0	5.607
460.0	5.653
461.0	5.684
462.0	5.724
463.0	5.750
464.0	5.786
465.0	5.809
466.0	5.839
467.0	5.862
468.0	5.897
469.0	5.924
470.0	5.966
471.0	6.000
472.0	6.034
473.0	6.063
474.0	6.097
475.0	6.132
476.0	6.162
477.0	6.194
478.0	6.222
479.0	6.251
480.0	6.279
481.0	6.312
482.0	6.332
483.0	6.356
484.0	6.377
485.0	6.406
486.0	6.431
487.0	6.464
488.0	6.489
489.0	6.504
490.0	6.512
491.0	6.524
492.0	6.546
493.0	6.557
494.0	6.579
495.0	6.598
496.0	6.621
497.0	6.621
498.0	6.624
499.0	6.645
500.0	6.677
501.0	6.682
502.0	6.678
503.0	6.675
504.0	6.688
505.0	6.687
506.0	6.696
507.0	6.704
508.0	6.719
509.0	6.715
510.0	6.718
511.0	6.717
512.0	6.721
513.0	6.715
514.0	6.710
515.0	6.697
516.0	6.693
517.0	6.681
518.0	6.683
519.0	6.671
520.0	6.662
521.0	6.644
522.0	6.630
523.0	6.617
524.0	6.598
525.0	6.582
526.0	6.569
527.0	6.546
528.0	6.532
529.0	6.500
530.0	6.480
531.0	6.444
532.0	6.415
533.0	6.390
534.0	6.371
535.0	6.355
536.0	6.335
537.0	6.311
538.0	6.293
539.0	6.265
540.0	6.239
541.0	6.213
542.0	6.200
543.0	6.180
544.0	6.155
545.0	6.135
546.0	6.120
547.0	6.099
548.0	6.065
549.0	6.043
550.0	6.026
551.0	6.015
552.0	5.991
553.0	5.976
554.0	5.956
555.0	5.943
556.0	5.925
557.0	5.909
558.0	5.895
559.0	5.871
560.0	5.856
561.0	5.845
562.0	5.840
563.0	5.829
564.0	5.806
565.0	5.799
566.0	5.796
567.0	5.790
568.0	5.774
569.0	5.759
570.0	5.754
571.0	5.738
572.0	5.723
573.0	5.703
574.0	5.696
575.0	5.687
576.0	5.685
577.0	5.685
578.0	5.689
579.0	5.688
580.0	5.681
581.0	5.675
582.0	5.671
583.0	5.673
584.0	5.674
585.0	5.680
586.0	5.676
587.0	5.673
588.0	5.672
589.0	5.682
590.0	5.689
591.0	5.695
592.0	5.699
593.0	5.705
594.0	5.698
595.0	5.704
596.0	5.716
597.0	5.732
598.0	5.743
599.0	5.749
600.0	5.774
601.0	5.776
602.0	5.789
603.0	5.792
604.0	5.808
605.0	5.815
606.0	5.832
607.0	5.847
608.0	5.866
609.0	5.878
610.0	5.892
611.0	5.904
612.0	5.926
613.0	5.946
614.0	5.959
615.0	5.972
616.0	5.987
617.0	6.012
618.0	6.020
619.0	6.030
620.0	6.047
621.0	6.075
622.0	6.095
623.0	6.111
624.0	6.134
625.0	6.154
626.0	6.186
627.0	6.209
628.0	6.238
629.0	6.250
630.0	6.273
631.0	6.295
632.0	6.317
633.0	6.334
634.0	6.358
635.0	6.387
636.0	6.406
637.0	6.434
638.0	6.454
639.0	6.483
640.0	6.498
641.0	6.523
642.0	6.559
643.0	6.581
644.0	6.605
645.0	6.619
646.0	6.644
647.0	6.676
648.0	6.695
649.0	6.733
650.0	6.754
651.0	6.792
652.0	6.813
653.0	6.834
654.0	6.870
655.0	6.893
656.0	6.931
657.0	6.944
658.0	6.973
659.0	7.003
660.0	7.032
661.0	7.047
662.0	7.057
663.0	7.076
664.0	7.109
665.0	7.143
666.0	7.169
667.0	7.184
668.0	7.204
669.0	7.240
670.0	7.286
671.0	7.330
672.0	7.354
673.0	7.396
674.0	7.421
675.0	7.454
676.0	7.469
677.0	7.505
678.0	7.559
679.0	7.604
680.0	7.623
681.0	7.638
682.0	7.648
683.0	7.688
684.0	7.709
685.0	7.739
686.0	7.754
687.0	7.785
688.0	7.802
689.0	7.829
690.0	7.858
691.0	7.896
692.0	7.945
693.0	7.954
694.0	7.973
695.0	7.982
696.0	7.995
697.0	8.041
698.0	8.067
699.0	8.104
700.0	8.123
701.0	8.129
702.0	8.151
703.0	8.172
704.0	8.218
705.0	8.260
706.0	8.270
707.0	8.276
708.0	8.299
709.0	8.334
710.0	8.378
711.0	8.378
712.0	8.400
713.0	8.430
714.0	8.455
715.0	8.471
716.0	8.485
717.0	8.524
718.0	8.565
719.0	8.598
720.0	8.614
721.0	8.624
722.0	8.636
723.0	8.667
724.0	8.695
725.0	8.735
726.0	8.754
727.0	8.774
728.0	8.789
729.0	8.812
730.0	8.851
731.0	8.858
732.0	8.896
733.0	8.916
734.0	8.962
735.0	8.975
736.0	8.990
737.0	9.006
738.0	9.030
739.0	9.087
740.0	9.116
741.0	9.160
742.0	9.183
743.0	9.220
744.0	9.247
745.0	9.242
746.0	9.264
747.0	9.277
748.0	9.310
749.0	9.346
750.0	9.393
751.0	9.433
752.0	9.462
753.0	9.457
754.0	9.482
755.0	9.470
756.0	9.524
757.0	9.560
758.0	9.626
759.0	9.641
760.0	9.664
761.0	9.695
762.0	9.696
763.0	9.719
764.0	9.749
765.0	9.819
766.0	9.847
767.0	9.883
768.0	9.902
769.0	9.918
770.0	9.912
771.0	9.923
772.0	9.956
773.0	9.989
774.0	10.052
775.0	10.044
776.0	10.046
777.0	10.022
778.0	10.093
779.0	10.115
780.0	10.121
781.0	10.097
782.0	10.124
783.0	10.142
784.0	10.177
785.0	10.193
786.0	10.247
787.0	10.238
788.0	10.266
789.0	10.300
790.0	10.340
791.0	10.350
792.0	10.354
793.0	10.373
794.0	10.367
795.0	10.381
796.0	10.344
797.0	10.362
798.0	10.367
799.0	10.453
800.0	10.566
801.0	10.646
802.0	10.745
803.0	10.760
804.0	10.785
805.0	10.773
806.0	10.794
807.0	10.826
808.0	10.856
809.0	10.873
810.0	10.888
811.0	10.903
812.0	10.934
813.0	10.959
814.0	10.989
815.0	11.000
816.0	11.027
817.0	11.052
818.0	11.068
819.0	11.071
820.0	11.076
821.0	11.117
822.0	11.137
823.0	11.169
824.0	11.177
825.0	11.198
826.0	11.201
827.0	11.216
828.0	11.251
829.0	11.280
830.0	11.323
831.0	11.342
832.0	11.385
833.0	11.373
834.0	11.389
835.0	11.385
836.0	11.398
837.0	11.432
838.0	11.441
839.0	11.463
840.0	11.447
841.0	11.457
842.0	11.503
843.0	11.539
844.0	11.571
845.0	11.594
846.0	11.610
847.0	11.654
848.0	11.677
849.0	11.674
850.0	11.672
851.0	11.687
852.0	11.679
853.0	11.675
854.0	11.683
855.0	11.745
856.0	11.788
857.0	11.802
858.0	11.845
859.0	11.825
860.0	11.817
861.0	11.779
862.0	11.840
863.0	11.863
864.0	11.947
865.0	11.939
866.0	11.976
867.0	11.969
868.0	12.003
869.0	12.031
870.0	12.268
871.0	12.531
872.0	12.705
873.0	12.707
874.0	12.534
875.0	12.360
876.0	12.374
877.0	12.427
878.0	12.683
879.0	12.564
880.0	12.600
881.0	12.327
882.0	12.457
883.0	12.433
884.0	12.507
885.0	12.531
886.0	12.573
887.0	12.666
888.0	12.529
889.0	12.657
890.0	12.560
891.0	12.644
892.0	12.467
893.0	12.636
894.0	12.616
895.0	12.607
896.0	12.504
897.0	12.432
898.0	12.641
899.0	12.836
900.0	12.829
901.0	12.589
902.0	12.495
903.0	12.682
904.0	12.855
905.0	12.811
906.0	12.664
907.0	12.627
908.0	12.772
909.0	12.807
910.0	12.790
911.0	12.742
912.0	12.822
913.0	12.976
914.0	12.980
915.0	12.962
916.0	12.810
917.0	12.742
918.0	12.763
919.0	12.716
920.0	12.736
921.0	12.653
922.0	12.692
923.0	12.650
924.0	12.680
925.0	12.770
926.0	12.828
927.0	12.900
928.0	12.876
929.0	12.797
930.0	12.746
931.0	12.669
932.0	12.734
933.0	12.685
934.0	12.703
935.0	12.720
936.0	12.748
937.0	12.761
938.0	12.782
939.0	12.774
940.0	12.787
941.0	12.805
942.0	12.848
943.0	12.845
944.0	12.792
945.0	12.775
946.0	12.811
947.0	12.808
948.0	12.762
949.0	12.747
950.0	12.757
951.0	12.834
952.0	12.838
953.0	12.830
954.0	12.805
955.0	12.804
956.0	12.819
957.0	12.827
958.0	12.799
959.0	12.782
960.0	12.781
961.0	12.807
962.0	12.850
963.0	12.831
964.0	12.837
965.0	12.818
966.0	12.840
967.0	12.883
968.0	12.866
969.0	12.847
970.0	12.766
971.0	12.788
972.0	12.844
973.0	12.848
974.0	12.884
975.0	12.851
976.0	12.926
977.0	12.885
978.0	12.877
979.0	12.833
980.0	12.861
981.0	12.854
982.0	12.880
983.0	12.880
984.0	12.911
985.0	12.858
986.0	12.856
987.0	12.858
988.0	12.886
989.0	12.860
990.0	12.821
991.0	12.818
992.0	12.842
993.0	12.858
994.0	12.856
995.0	12.817
996.0	12.830
997.0	12.828
998.0	12.815
999.0	12.783
1000.0	12.793
1001.0	12.841
1002.0	12.855
1003.0	12.854
1004.0	12.801
1005.0	12.786
1006.0	12.772
1007.0	12.821
1008.0	12.815
1009.0	12.805
1010.0	12.781
1011.0	12.799
1012.0	12.805
1013.0	12.785
1014.0	12.772
1015.0	12.770
1016.0	12.796
1017.0	12.810
1018.0	12.819
1019.0	12.799
1020.0	12.786
1021.0	12.783
1022.0	12.803
1023.0	12.806
1024.0	12.772
1025.0	12.771
1026.0	12.797
1027.0	12.829
1028.0	12.805
1029.0	12.797
1030.0	12.793
1031.0	12.822
1032.0	12.809
1033.0	12.814
1034.0	12.782
1035.0	12.781
1036.0	12.770
1037.0	12.792
1038.0	12.772
1039.0	12.769
1040.0	12.763
1041.0	12.768
1042.0	12.792
1043.0	12.812
1044.0	12.836
1045.0	12.808
1046.0	12.799
1047.0	12.773
1048.0	12.792
1049.0	12.788
1050.0	12.797
1051.0	12.771
1052.0	12.753
1053.0	12.745
1054.0	12.755
1055.0	12.763
1056.0	12.792
1057.0	12.792
1058.0	12.782
1059.0	12.771
1060.0	12.773
1061.0	12.772
1062.0	12.759
1063.0	12.771
1064.0	12.789
1065.0	12.793
1066.0	12.779
1067.0	12.768
1068.0	12.761
1069.0	12.769
1070.0	12.763
1071.0	12.774
1072.0	12.761
1073.0	12.769
1074.0	12.752
1075.0	12.757
1076.0	12.761
1077.0	12.777
1078.0	12.770
1079.0	12.750
1080.0	12.730
1081.0	12.771
1082.0	12.780
1083.0	12.791
1084.0	12.766
1085.0	12.760
1086.0	12.778
1087.0	12.778
1088.0	12.789
1089.0	12.807
1090.0	12.807
1091.0	12.807
1092.0	12.774
1093.0	12.766
1094.0	12.750
1095.0	12.740
1096.0	12.753
1097.0	12.792
1098.0	12.812
1099.0	12.802
1100.0	12.797
1101.0	12.786
1102.0	12.791
1103.0	12.775
1104.0	12.799
1105.0	12.813
1106.0	12.833
1107.0	12.808
1108.0	12.790
1109.0	12.758
1110.0	12.789
1111.0	12.812
1112.0	12.821
1113.0	12.827
1114.0	12.828
1115.0	12.842
1116.0	12.812
1117.0	12.805
1118.0	12.825
1119.0	12.842
1120.0	12.856
1121.0	12.845
1122.0	12.849
1123.0	12.830
1124.0	12.848
1125.0	12.838
1126.0	12.871
1127.0	12.873
1128.0	12.886
1129.0	12.893
1130.0	12.890
1131.0	12.902
1132.0	12.910
1133.0	12.903
1134.0	12.916
1135.0	12.919
1136.0	12.926
1137.0	12.920
1138.0	12.913
1139.0	12.939
1140.0	12.959
1141.0	12.984
1142.0	12.992
1143.0	12.988
1144.0	12.992
1145.0	12.994
1146.0	13.005
1147.0	13.001
1148.0	13.006
1149.0	13.018
1150.0	13.026
1151.0	13.040
1152.0	13.053
1153.0	13.076
1154.0	13.095
1155.0	13.107
1156.0	13.089
1157.0	13.080
1158.0	13.077
1159.0	13.116
1160.0	13.141
1161.0	13.167
1162.0	13.176
1163.0	13.186
1164.0	13.196
1165.0	13.190
1166.0	13.207
1167.0	13.193
1168.0	13.217
1169.0	13.205
1170.0	13.233
1171.0	13.227
1172.0	13.251
1173.0	13.244
1174.0	13.250
1175.0	13.251
1176.0	13.275
1177.0	13.299
1178.0	13.305
1179.0	13.325
1180.0	13.337
1181.0	13.360
1182.0	13.370
1183.0	13.381
1184.0	13.393
1185.0	13.414
1186.0	13.421
1187.0	13.433
1188.0	13.429
1189.0	13.430
1190.0	13.432
1191.0	13.453
1192.0	13.468
1193.0	13.482
1194.0	13.495
1195.0	13.521
1196.0	13.523
1197.0	13.526
1198.0	13.548
1199.0	13.582
1200.0	13.590
1201.0	13.604
1202.0	13.614
1203.0	13.641
1204.0	13.650
1205.0	13.665
1206.0	13.681
1207.0	13.704
1208.0	13.702
1209.0	13.703
1210.0	13.716
1211.0	13.755
1212.0	13.776
1213.0	13.779
1214.0	13.791
1215.0	13.813
1216.0	13.839
1217.0	13.835
1218.0	13.834
1219.0	13.821
1220.0	13.845
1221.0	13.861
1222.0	13.894
1223.0	13.927
1224.0	13.955
1225.0	13.962
1226.0	13.965
1227.0	13.987
1228.0	13.984
1229.0	14.007
1230.0	14.024
1231.0	14.065
1232.0	14.060
1233.0	14.073
1234.0	14.088
1235.0	14.128
1236.0	14.123
1237.0	14.146
1238.0	14.141
1239.0	14.161
1240.0	14.179
1241.0	14.204
1242.0	14.241
1243.0	14.256
1244.0	14.254
1245.0	14.249
1246.0	14.253
1247.0	14.294
1248.0	14.321
1249.0	14.361
1250.0	14.374
1251.0	14.389
1252.0	14.402
1253.0	14.419
1254.0	14.445
1255.0	14.465
1256.0	14.487
1257.0	14.504
1258.0	14.515
1259.0	14.534
1260.0	14.574
1261.0	14.590
1262.0	14.603
1263.0	14.590
1264.0	14.608
1265.0	14.621
1266.0	14.625
1267.0	14.643
1268.0	14.654
1269.0	14.684
1270.0	14.701
1271.0	14.727
1272.0	14.744
1273.0	14.753
1274.0	14.778
1275.0	14.811
1276.0	14.835
1277.0	14.845
1278.0	14.853
1279.0	14.859
1280.0	14.888
1281.0	14.893
1282.0	14.916
1283.0	14.926
1284.0	14.947
1285.0	14.954
1286.0	14.962
1287.0	14.980
1288.0	15.005
1289.0	15.029
1290.0	15.054
1291.0	15.074
1292.0	15.096
1293.0	15.113
1294.0	15.142
1295.0	15.150
1296.0	15.170
1297.0	15.170
1298.0	15.192
1299.0	15.209
1300.0	15.238
1301.0	15.261
1302.0	15.305
1303.0	15.328
1304.0	15.359
1305.0	15.348
1306.0	15.366
1307.0	15.384
1308.0	15.433
1309.0	15.483
1310.0	15.500
1311.0	15.515
1312.0	15.529
1313.0	15.556
1314.0	15.567
1315.0	15.571
1316.0	15.602
1317.0	15.628
1318.0	15.664
1319.0	15.684
1320.0	15.714
1321.0	15.741
1322.0	15.756
1323.0	15.772
1324.0	15.791
1325.0	15.799
1326.0	15.816
1327.0	15.818
1328.0	15.857
1329.0	15.894
1330.0	15.926
1331.0	15.943
1332.0	15.970
1333.0	15.989
1334.0	16.013
1335.0	16.022
1336.0	16.067
1337.0	16.071
1338.0	16.069
1339.0	16.072
1340.0	16.118
1341.0	16.171
1342.0	16.192
1343.0	16.232
1344.0	16.234
1345.0	16.249
1346.0	16.235
1347.0	16.257
1348.0	16.254
1349.0	16.266
1350.0	16.256
1351.0	16.280
1352.0	16.311
1353.0	16.347
1354.0	16.382
1355.0	16.379
1356.0	16.398
1357.0	16.409
1358.0	16.421
1359.0	16.434
1360.0	16.430
1361.0	16.463
1362.0	16.481
1363.0	16.521
1364.0	16.552
1365.0	16.579
1366.0	16.570
1367.0	16.581
1368.0	16.602
1369.0	16.637
1370.0	16.664
1371.0	16.687
1372.0	16.725
1373.0	16.759
1374.0	16.778
1375.0	16.802
1376.0	16.841
1377.0	16.890
1378.0	16.923
1379.0	16.920
1380.0	16.934
1381.0	16.956
1382.0	16.971
1383.0	16.990
1384.0	17.021
1385.0	17.096
1386.0	17.122
1387.0	17.164
1388.0	17.169
1389.0	17.207
1390.0	17.236
1391.0	17.247
1392.0	17.280
1393.0	17.324
1394.0	17.381
1395.0	17.428
1396.0	17.441
1397.0	17.466
1398.0	17.494
1399.0	17.511
1400.0	17.531
1401.0	17.577
1402.0	17.638
1403.0	17.699
1404.0	17.716
1405.0	17.739
1406.0	17.745
1407.0	17.766
1408.0	17.795
1409.0	17.849
1410.0	17.885
1411.0	17.958
1412.0	17.970
1413.0	17.999
1414.0	17.978
1415.0	18.035
1416.0	18.088
1417.0	18.116
1418.0	18.154
1419.0	18.145
1420.0	18.176
1421.0	18.186
1422.0	18.241
1423.0	18.251
1424.0	18.246
1425.0	18.235
1426.0	18.276
1427.0	18.298
1428.0	18.349
1429.0	18.345
1430.0	18.363
1431.0	18.327
1432.0	18.385
1433.0	18.419
1434.0	18.494
1435.0	18.490
1436.0	18.521
1437.0	18.528
1438.0	18.574
1439.0	18.598
1440.0	18.602
1441.0	18.584
1442.0	18.596
1443.0	18.653
1444.0	18.707
1445.0	18.698
1446.0	18.657
1447.0	18.617
1448.0	18.644
1449.0	18.703
1450.0	18.749
1451.0	18.750
1452.0	18.770
1453.0	18.792
1454.0	18.816
1455.0	18.796
1456.0	18.802
1457.0	18.816
1458.0	18.832
1459.0	18.855
1460.0	18.844
1461.0	18.838
1462.0	18.812
1463.0	18.820
1464.0	18.882
1465.0	18.909
1466.0	18.952
1467.0	18.954
1468.0	18.956
1469.0	18.955
1470.0	18.944
1471.0	18.936
1472.0	18.917
1473.0	18.927
1474.0	18.934
1475.0	18.955
1476.0	18.957
1477.0	18.997
1478.0	18.992
1479.0	19.013
1480.0	19.014
1481.0	19.048
1482.0	19.005
1483.0	19.000
1484.0	18.991
1485.0	19.031
1486.0	18.982
1487.0	18.972
1488.0	18.989
1489.0	19.002
1490.0	19.022
1491.0	18.994
1492.0	19.054
1493.0	19.073
1494.0	19.078
1495.0	19.097
1496.0	19.113
1497.0	19.068
1498.0	19.073
1499.0	19.053
1500.0	19.114
1501.0	19.093
1502.0	19.100
1503.0	19.116
1504.0	19.109
1505.0	19.094
1506.0	19.068
1507.0	19.108
1508.0	19.095
1509.0	19.148
1510.0	19.129
1511.0	19.150
1512.0	19.132
1513.0	19.132
1514.0	19.184
1515.0	19.201
1516.0	19.188
1517.0	19.182
1518.0	19.154
1519.0	19.155
1520.0	19.148
1521.0	19.182
1522.0	19.192
1523.0	19.191
1524.0	19.160
1525.0	19.181
1526.0	19.190
1527.0	19.263
1528.0	19.281
1529.0	19.258
1530.0	19.234
1531.0	19.213
1532.0	19.240
1533.0	19.261
1534.0	19.293
1535.0	19.329
1536.0	19.297
1537.0	19.284
1538.0	19.253
1539.0	19.287
1540.0	19.285
1541.0	19.319
1542.0	19.309
1543.0	19.348
1544.0	19.323
1545.0	19.293
1546.0	19.275
1547.0	19.293
1548.0	19.322
1549.0	19.322
1550.0	19.314
1551.0	19.334
1552.0	19.355
1553.0	19.348
1554.0	19.338
1555.0	19.324
1556.0	19.360
1557.0	19.407
1558.0	19.476
1559.0	19.493
1560.0	19.475
1561.0	19.437
1562.0	19.433
1563.0	19.450
1564.0	19.451
1565.0	19.466
1566.0	19.413
1567.0	19.434
1568.0	19.438
1569.0	19.505
1570.0	19.513
1571.0	19.516
1572.0	19.503
1573.0	19.496
1574.0	19.484
1575.0	19.499
1576.0	19.499
1577.0	19.494
1578.0	19.461
1579.0	19.516
1580.0	19.542
1581.0	19.579
1582.0	19.565
1583.0	19.597
1584.0	19.584
1585.0	19.598
1586.0	19.599
1587.0	19.634
1588.0	19.643
1589.0	19.654
1590.0	19.625
1591.0	19.631
1592.0	19.668
1593.0	19.682
1594.0	19.674
1595.0	19.644
1596.0	19.685
1597.0	19.684
1598.0	19.645
1599.0	19.680
1600.0	19.725
1601.0	19.742
1602.0	19.759
1603.0	19.759
1604.0	19.798
1605.0	19.742
1606.0	19.681
1607.0	19.677
1608.0	19.691
1609.0	19.760
1610.0	19.741
1611.0	19.747
1612.0	19.722
1613.0	19.747
1614.0	19.743
1615.0	19.747
1616.0	19.757
1617.0	19.769
1618.0	19.811
1619.0	19.824
1620.0	19.843
1621.0	19.807
1622.0	19.825
1623.0	19.855
1624.0	19.873
1625.0	19.844
1626.0	19.843
1627.0	19.844
1628.0	19.903
1629.0	19.911
1630.0	19.935
1631.0	19.953
1632.0	19.973
1633.0	19.986
1634.0	19.972
1635.0	19.950
1636.0	19.949
1637.0	19.899
1638.0	19.899
1639.0	19.930
1640.0	19.986
1641.0	20.050
1642.0	20.041
1643.0	20.013
1644.0	19.953
1645.0	19.952
1646.0	19.949
1647.0	19.955
1648.0	19.970
1649.0	20.011
1650.0	19.235
1651.0	17.934
1652.0	17.334
1653.0	16.872
1654.0	17.033
1655.0	16.310
1656.0	16.193
1657.0	16.701
1658.0	16.767
1659.0	16.960
1660.0	16.616
1661.0	16.908
1662.0	16.696
1663.0	16.617
1664.0	16.480
1665.0	16.965
1666.0	16.972
1667.0	17.273
1668.0	17.099
1669.0	17.211
1670.0	16.903
1671.0	17.158
1672.0	17.194
1673.0	17.727
1674.0	17.425
1675.0	17.353
1676.0	17.328
1677.0	17.243
1678.0	17.314
1679.0	16.618
1680.0	17.011
1681.0	16.904
1682.0	16.886
1683.0	17.197
1684.0	17.517
1685.0	17.554
1686.0	17.175
1687.0	17.027
1688.0	17.336
1689.0	16.945
1690.0	16.527
1691.0	16.611
1692.0	17.013
1693.0	16.986
1694.0	16.927
1695.0	16.950
1696.0	17.374
1697.0	17.432
1698.0	17.473
1699.0	17.126
1700.0	17.194
1701.0	17.132
1702.0	17.750
1703.0	17.277
1704.0	17.048
1705.0	17.057
1706.0	17.412
1707.0	17.560
1708.0	16.832
1709.0	16.926
1710.0	16.786
1711.0	17.378
1712.0	17.664
1713.0	18.263
1714.0	17.816
1715.0	17.473
1716.0	16.737
1717.0	17.139
1718.0	17.278
1719.0	18.016
1720.0	18.273
1721.0	18.360
1722.0	18.195
1723.0	17.608
1724.0	17.412
1725.0	17.126
1726.0	17.312
1727.0	17.476
1728.0	17.810
1729.0	17.727
1730.0	17.108
1731.0	16.570
1732.0	16.381
1733.0	16.472
1734.0	17.079
1735.0	17.806
1736.0	17.888
1737.0	17.209
1738.0	16.849
1739.0	17.749
1740.0	17.666
1741.0	17.493
1742.0	16.722
1743.0	17.170
1744.0	17.254
1745.0	16.994
1746.0	16.603
1747.0	16.350
1748.0	16.579
1749.0	16.962
1750.0	17.091
1751.0	17.396
1752.0	16.827
1753.0	16.585
1754.0	16.523
1755.0	17.023
1756.0	17.834
1757.0	17.089
1758.0	17.123
1759.0	16.713
1760.0	17.171
1761.0	17.297
1762.0	17.147
1763.0	17.238
1764.0	17.029
1765.0	17.445
1766.0	18.121
1767.0	18.499
1768.0	18.236
1769.0	17.787
1770.0	17.468
1771.0	17.541
1772.0	17.682
1773.0	17.948
1774.0	17.878
1775.0	17.537
1776.0	17.476
1777.0	17.571
1778.0	17.725
1779.0	17.293
1780.0	17.522
1781.0	17.492
1782.0	17.843
1783.0	17.224
1784.0	17.224
1785.0	16.801
1786.0	17.330
1787.0	17.187
1788.0	17.924
1789.0	17.782
1790.0	18.289
1791.0	17.742
1792.0	17.494
1793.0	17.280
1794.0	18.143
1795.0	18.024
1796.0	18.269
1797.0	17.704
1798.0	18.364
1799.0	18.266
1800.0	18.613
1801.0	18.406
1802.0	17.951
1803.0	17.127
1804.0	17.327
1805.0	17.271
1806.0	16.909
1807.0	16.011
1808.0	16.713
1809.0	17.016
1810.0	17.534
1811.0	17.802
1812.0	18.044
1813.0	18.017
1814.0	17.398
1815.0	17.214
1816.0	17.038
1817.0	17.312
1818.0	18.238
1819.0	18.744
1820.0	18.704
1821.0	18.105
1822.0	18.210
1823.0	17.799
1824.0	17.931
1825.0	18.361
1826.0	18.182
1827.0	17.768
1828.0	17.810
1829.0	17.868
1830.0	17.772
1831.0	17.461
1832.0	18.111
1833.0	18.291
1834.0	18.342
1835.0	17.963
1836.0	18.634
1837.0	18.205
1838.0	17.861
1839.0	17.721
1840.0	16.546
1841.0	17.365
1842.0	17.254
1843.0	19.026
1844.0	18.081
1845.0	17.650
1846.0	17.051
1847.0	17.784
1848.0	17.871
1849.0	17.821
1850.0	17.170
1851.0	17.703
1852.0	17.703
1853.0	17.854
1854.0	17.951
1855.0	18.028
1856.0	18.089
1857.0	17.412
1858.0	17.465
1859.0	18.246
1860.0	18.293
1861.0	18.516
1862.0	17.976
1863.0	18.133
1864.0	16.811
1865.0	16.926
1866.0	17.440
1867.0	17.719
1868.0	17.844
1869.0	16.904
1870.0	17.552
1871.0	17.175
1872.0	17.820
1873.0	18.170
1874.0	18.112
1875.0	17.799
1876.0	17.474
1877.0	17.681
1878.0	18.512
1879.0	19.571
1880.0	19.644
1881.0	19.809
1882.0	19.204
1883.0	20.338
1884.0	20.515
1885.0	19.927
1886.0	19.471
1887.0	18.831
1888.0	19.634
1889.0	18.961
1890.0	18.184
1891.0	18.507
1892.0	18.476
1893.0	19.220
1894.0	18.943
1895.0	19.695
1896.0	20.472
1897.0	21.107
1898.0	20.158
1899.0	18.834
1900.0	18.800
1901.0	19.704
1902.0	21.113
1903.0	20.627
1904.0	20.256
1905.0	20.134
1906.0	18.590
1907.0	19.407
1908.0	19.236
1909.0	21.205
1910.0	20.079
1911.0	19.586
1912.0	18.912
1913.0	18.818
1914.0	19.119
1915.0	19.369
1916.0	19.749
1917.0	19.893
1918.0	19.854
1919.0	20.464
1920.0	20.616
1921.0	21.632
1922.0	22.392
1923.0	22.323
1924.0	20.916
1925.0	18.076
1926.0	17.984
1927.0	18.319
1928.0	20.697
1929.0	22.203
1930.0	23.822
1931.0	23.881
1932.0	22.668
1933.0	22.103
1934.0	21.195
1935.0	20.383
1936.0	19.583
1937.0	21.205
1938.0	21.700
1939.0	21.116
1940.0	20.875
1941.0	20.689
1942.0	21.804
1943.0	20.707
1944.0	21.104
1945.0	20.340
1946.0	20.512
1947.0	20.066
1948.0	19.797
1949.0	19.079
1950.0	20.425
1951.0	19.854
1952.0	18.239
1953.0	17.149
1954.0	17.499
1955.0	20.820
1956.0	20.891
1957.0	21.512
1958.0	20.229
1959.0	19.304
1960.0	19.277
1961.0	18.898
1962.0	19.012
1963.0	19.404
1964.0	19.317
1965.0	20.142
1966.0	19.766
1967.0	20.674
1968.0	20.221
1969.0	20.082
1970.0	20.527
1971.0	21.130
1972.0	22.663
1973.0	21.937
1974.0	21.642
1975.0	20.431
1976.0	21.249
1977.0	20.936
1978.0	20.429
1979.0	19.695
1980.0	20.324
1981.0	19.495
1982.0	19.639
1983.0	19.049
1984.0	20.729
1985.0	20.681
1986.0	20.629
1987.0	19.875
1988.0	19.076
1989.0	19.680
1990.0	19.659
1991.0	19.982
1992.0	18.828
1993.0	19.187
1994.0	19.037
1995.0	19.627
1996.0	19.266
1997.0	19.405
1998.0	19.784
1999.0	19.825
2000.0	19.993
