[SUMMARY]
Software Information
Software Name:	UVProbe
Version:	2.43
Mode:	Normal Mode

Data Information
Data is:	Original
Analyst:	
Date/Time:	06/03/2023 12:38:03
Comments:	

Instrument Information
Instrument Name:	SolidSpec3700
Instrument Type:	SolidSpec-3700 Series
Model (S/N):	SolidSpec3700 ( A11085100264CZ )

[METHOD]
[Measurement Properties]
Wavelength Range (nm.):	285,00 to 2000,00
Scan Speed:	Medium
Sampling Interval:	1,0
Auto Sampling Interval:	Disabled
Scan Mode:	Single

[Sample Preparation Properties]
Weight:	
Volume:	
Dilution:	
Path Length:	
Additional Information:	

[Instrument Properties]
Instrument Type:	SolidSpec-3700 Series
Measuring Mode:	Transmittance
Slit Width:	5,0 nm
Time Constant:	1,0 sec.
Source Lamp:	Auto
Light Source Change Wavelength:	282,00 nm
Detector Unit:	Integral Sphere
Detector Change Wavelength:	870,00 nm  1650,00 nm
Grating Change Wavelength:	800,00 nm
S/R Exchange:	Normal
Detector Lock:	Auto
Slit Program:	Fixed
Beam Mode:	Double
Stair Correction:	Disable

[Attachment Properties]
Attachment:	None

[Operation]
Threshold:	0,0010000
Points:	4
InterPolate:	Disabled
Average:	Disabled

[DATA]
Wavelength	Data
285.0	48.896
286.0	49.454
287.0	50.556
288.0	51.455
289.0	52.505
290.0	53.190
291.0	54.155
292.0	54.984
293.0	55.680
294.0	56.188
295.0	56.848
296.0	57.459
297.0	58.098
298.0	58.798
299.0	59.481
300.0	60.043
301.0	60.291
302.0	60.772
303.0	60.983
304.0	61.471
305.0	61.811
306.0	62.227
307.0	62.322
308.0	62.412
309.0	62.647
310.0	63.123
311.0	63.421
312.0	63.527
313.0	63.361
314.0	63.260
315.0	63.268
316.0	63.308
317.0	63.327
318.0	63.296
319.0	63.119
320.0	63.074
321.0	62.845
322.0	62.669
323.0	62.451
324.0	62.364
325.0	62.188
326.0	61.959
327.0	61.643
328.0	61.351
329.0	61.016
330.0	60.786
331.0	60.583
332.0	60.324
333.0	59.999
334.0	59.717
335.0	59.413
336.0	59.104
337.0	58.826
338.0	58.628
339.0	58.296
340.0	57.943
341.0	57.531
342.0	57.198
343.0	56.789
344.0	56.447
345.0	56.080
346.0	55.760
347.0	55.362
348.0	55.069
349.0	54.616
350.0	54.240
351.0	53.689
352.0	53.232
353.0	52.700
354.0	52.332
355.0	51.984
356.0	51.633
357.0	51.184
358.0	50.848
359.0	50.449
360.0	50.088
361.0	49.580
362.0	49.241
363.0	48.843
364.0	48.468
365.0	48.034
366.0	47.778
367.0	47.514
368.0	47.224
369.0	46.842
370.0	46.529
371.0	46.245
372.0	46.011
373.0	45.798
374.0	45.597
375.0	45.413
376.0	45.271
377.0	45.214
378.0	45.181
379.0	45.156
380.0	45.096
381.0	45.119
382.0	45.248
383.0	45.389
384.0	45.572
385.0	45.736
386.0	46.019
387.0	46.250
388.0	46.515
389.0	46.818
390.0	47.122
391.0	47.464
392.0	47.759
393.0	48.083
394.0	48.393
395.0	48.690
396.0	49.030
397.0	49.322
398.0	49.714
399.0	50.003
400.0	50.341
401.0	50.542
402.0	50.796
403.0	51.022
404.0	51.223
405.0	51.388
406.0	51.525
407.0	51.658
408.0	51.822
409.0	51.980
410.0	52.149
411.0	52.291
412.0	52.409
413.0	52.573
414.0	52.787
415.0	53.001
416.0	53.261
417.0	53.490
418.0	53.772
419.0	54.075
420.0	54.368
421.0	54.741
422.0	55.079
423.0	55.452
424.0	55.776
425.0	56.148
426.0	56.535
427.0	56.931
428.0	57.334
429.0	57.722
430.0	58.043
431.0	58.294
432.0	58.530
433.0	58.740
434.0	58.946
435.0	59.119
436.0	59.285
437.0	59.391
438.0	59.449
439.0	59.479
440.0	59.489
441.0	59.505
442.0	59.487
443.0	59.434
444.0	59.296
445.0	59.156
446.0	59.003
447.0	58.910
448.0	58.800
449.0	58.710
450.0	58.571
451.0	58.400
452.0	58.226
453.0	58.042
454.0	57.887
455.0	57.728
456.0	57.548
457.0	57.375
458.0	57.200
459.0	57.045
460.0	56.879
461.0	56.713
462.0	56.577
463.0	56.439
464.0	56.339
465.0	56.207
466.0	56.116
467.0	55.973
468.0	55.877
469.0	55.781
470.0	55.673
471.0	55.584
472.0	55.493
473.0	55.460
474.0	55.405
475.0	55.326
476.0	55.289
477.0	55.232
478.0	55.213
479.0	55.149
480.0	55.146
481.0	55.112
482.0	55.094
483.0	55.081
484.0	55.058
485.0	55.100
486.0	55.127
487.0	55.173
488.0	55.193
489.0	55.210
490.0	55.266
491.0	55.336
492.0	55.410
493.0	55.483
494.0	55.520
495.0	55.593
496.0	55.687
497.0	55.763
498.0	55.849
499.0	55.938
500.0	56.061
501.0	56.194
502.0	56.333
503.0	56.448
504.0	56.550
505.0	56.679
506.0	56.850
507.0	57.027
508.0	57.164
509.0	57.307
510.0	57.430
511.0	57.582
512.0	57.713
513.0	57.867
514.0	58.015
515.0	58.189
516.0	58.377
517.0	58.546
518.0	58.682
519.0	58.814
520.0	58.952
521.0	59.097
522.0	59.265
523.0	59.443
524.0	59.619
525.0	59.721
526.0	59.861
527.0	59.968
528.0	60.147
529.0	60.254
530.0	60.387
531.0	60.443
532.0	60.552
533.0	60.638
534.0	60.726
535.0	60.784
536.0	60.836
537.0	60.938
538.0	61.004
539.0	61.089
540.0	61.106
541.0	61.150
542.0	61.191
543.0	61.221
544.0	61.245
545.0	61.264
546.0	61.345
547.0	61.375
548.0	61.396
549.0	61.364
550.0	61.368
551.0	61.303
552.0	61.269
553.0	61.221
554.0	61.233
555.0	61.214
556.0	61.135
557.0	61.067
558.0	61.002
559.0	60.959
560.0	60.936
561.0	60.878
562.0	60.810
563.0	60.725
564.0	60.659
565.0	60.629
566.0	60.510
567.0	60.416
568.0	60.298
569.0	60.219
570.0	60.110
571.0	59.998
572.0	59.924
573.0	59.816
574.0	59.723
575.0	59.588
576.0	59.470
577.0	59.367
578.0	59.269
579.0	59.156
580.0	59.003
581.0	58.838
582.0	58.714
583.0	58.604
584.0	58.506
585.0	58.350
586.0	58.207
587.0	58.069
588.0	57.934
589.0	57.803
590.0	57.648
591.0	57.531
592.0	57.373
593.0	57.211
594.0	57.057
595.0	56.914
596.0	56.766
597.0	56.578
598.0	56.385
599.0	56.207
600.0	56.086
601.0	55.927
602.0	55.771
603.0	55.541
604.0	55.396
605.0	55.236
606.0	55.084
607.0	54.855
608.0	54.701
609.0	54.554
610.0	54.421
611.0	54.226
612.0	54.033
613.0	53.830
614.0	53.656
615.0	53.491
616.0	53.320
617.0	53.129
618.0	52.954
619.0	52.790
620.0	52.623
621.0	52.417
622.0	52.246
623.0	52.061
624.0	51.882
625.0	51.668
626.0	51.466
627.0	51.312
628.0	51.165
629.0	50.978
630.0	50.739
631.0	50.555
632.0	50.417
633.0	50.311
634.0	50.127
635.0	49.924
636.0	49.692
637.0	49.523
638.0	49.316
639.0	49.160
640.0	48.957
641.0	48.821
642.0	48.646
643.0	48.486
644.0	48.293
645.0	48.111
646.0	47.928
647.0	47.775
648.0	47.613
649.0	47.451
650.0	47.303
651.0	47.144
652.0	46.991
653.0	46.770
654.0	46.593
655.0	46.402
656.0	46.220
657.0	46.041
658.0	45.858
659.0	45.721
660.0	45.569
661.0	45.438
662.0	45.306
663.0	45.177
664.0	45.053
665.0	44.933
666.0	44.805
667.0	44.678
668.0	44.526
669.0	44.388
670.0	44.225
671.0	44.073
672.0	43.936
673.0	43.779
674.0	43.664
675.0	43.528
676.0	43.411
677.0	43.261
678.0	43.142
679.0	43.048
680.0	42.930
681.0	42.835
682.0	42.727
683.0	42.687
684.0	42.551
685.0	42.462
686.0	42.294
687.0	42.190
688.0	42.060
689.0	41.993
690.0	41.911
691.0	41.820
692.0	41.703
693.0	41.597
694.0	41.518
695.0	41.472
696.0	41.408
697.0	41.280
698.0	41.155
699.0	41.070
700.0	41.062
701.0	40.971
702.0	40.927
703.0	40.846
704.0	40.821
705.0	40.771
706.0	40.689
707.0	40.605
708.0	40.464
709.0	40.416
710.0	40.372
711.0	40.328
712.0	40.195
713.0	40.070
714.0	39.963
715.0	39.955
716.0	39.879
717.0	39.799
718.0	39.685
719.0	39.601
720.0	39.491
721.0	39.396
722.0	39.345
723.0	39.337
724.0	39.299
725.0	39.213
726.0	39.120
727.0	39.001
728.0	38.934
729.0	38.870
730.0	38.802
731.0	38.732
732.0	38.586
733.0	38.523
734.0	38.451
735.0	38.422
736.0	38.327
737.0	38.187
738.0	38.076
739.0	37.984
740.0	37.964
741.0	37.908
742.0	37.779
743.0	37.640
744.0	37.527
745.0	37.503
746.0	37.441
747.0	37.330
748.0	37.214
749.0	37.082
750.0	37.040
751.0	36.966
752.0	36.936
753.0	36.854
754.0	36.775
755.0	36.707
756.0	36.614
757.0	36.542
758.0	36.414
759.0	36.320
760.0	36.237
761.0	36.243
762.0	36.163
763.0	36.114
764.0	36.039
765.0	35.986
766.0	35.950
767.0	35.794
768.0	35.749
769.0	35.615
770.0	35.608
771.0	35.581
772.0	35.544
773.0	35.493
774.0	35.459
775.0	35.422
776.0	35.359
777.0	35.224
778.0	35.188
779.0	35.181
780.0	35.238
781.0	35.187
782.0	35.154
783.0	35.053
784.0	35.030
785.0	34.949
786.0	34.891
787.0	34.819
788.0	34.829
789.0	34.833
790.0	34.769
791.0	34.712
792.0	34.687
793.0	34.653
794.0	34.625
795.0	34.576
796.0	34.592
797.0	34.542
798.0	34.457
799.0	34.424
800.0	34.431
801.0	34.503
802.0	34.561
803.0	34.519
804.0	34.474
805.0	34.389
806.0	34.387
807.0	34.348
808.0	34.341
809.0	34.260
810.0	34.197
811.0	34.135
812.0	34.147
813.0	34.106
814.0	34.035
815.0	33.955
816.0	33.961
817.0	33.914
818.0	33.844
819.0	33.753
820.0	33.713
821.0	33.655
822.0	33.619
823.0	33.564
824.0	33.505
825.0	33.432
826.0	33.355
827.0	33.357
828.0	33.283
829.0	33.260
830.0	33.160
831.0	33.125
832.0	33.030
833.0	33.009
834.0	32.953
835.0	32.866
836.0	32.779
837.0	32.699
838.0	32.697
839.0	32.687
840.0	32.615
841.0	32.575
842.0	32.502
843.0	32.488
844.0	32.429
845.0	32.314
846.0	32.190
847.0	32.123
848.0	32.105
849.0	32.111
850.0	32.111
851.0	32.068
852.0	31.959
853.0	31.808
854.0	31.745
855.0	31.754
856.0	31.786
857.0	31.765
858.0	31.664
859.0	31.600
860.0	31.619
861.0	31.658
862.0	31.527
863.0	31.326
864.0	31.196
865.0	31.172
866.0	31.287
867.0	31.245
868.0	31.268
869.0	31.264
870.0	31.376
871.0	31.370
872.0	31.340
873.0	31.234
874.0	31.170
875.0	30.958
876.0	31.068
877.0	31.027
878.0	31.143
879.0	31.093
880.0	31.191
881.0	31.163
882.0	31.150
883.0	31.216
884.0	31.197
885.0	31.065
886.0	31.054
887.0	31.023
888.0	31.099
889.0	31.016
890.0	31.171
891.0	31.253
892.0	31.229
893.0	31.207
894.0	31.262
895.0	31.296
896.0	31.343
897.0	31.417
898.0	31.512
899.0	31.548
900.0	31.467
901.0	31.555
902.0	31.546
903.0	31.645
904.0	31.593
905.0	31.606
906.0	31.572
907.0	31.590
908.0	31.635
909.0	31.834
910.0	31.947
911.0	31.941
912.0	31.794
913.0	31.821
914.0	31.883
915.0	31.902
916.0	31.963
917.0	32.035
918.0	32.074
919.0	32.064
920.0	32.081
921.0	32.159
922.0	32.148
923.0	32.201
924.0	32.208
925.0	32.334
926.0	32.363
927.0	32.442
928.0	32.467
929.0	32.482
930.0	32.502
931.0	32.499
932.0	32.528
933.0	32.592
934.0	32.589
935.0	32.650
936.0	32.597
937.0	32.705
938.0	32.741
939.0	32.839
940.0	32.825
941.0	32.881
942.0	32.906
943.0	32.984
944.0	32.966
945.0	33.036
946.0	33.043
947.0	33.141
948.0	33.155
949.0	33.195
950.0	33.229
951.0	33.255
952.0	33.328
953.0	33.378
954.0	33.455
955.0	33.498
956.0	33.531
957.0	33.576
958.0	33.627
959.0	33.669
960.0	33.688
961.0	33.682
962.0	33.687
963.0	33.775
964.0	33.827
965.0	33.899
966.0	33.911
967.0	33.957
968.0	33.974
969.0	34.003
970.0	34.078
971.0	34.166
972.0	34.241
973.0	34.291
974.0	34.345
975.0	34.412
976.0	34.445
977.0	34.496
978.0	34.544
979.0	34.588
980.0	34.610
981.0	34.643
982.0	34.718
983.0	34.757
984.0	34.810
985.0	34.847
986.0	34.915
987.0	34.960
988.0	35.029
989.0	35.086
990.0	35.129
991.0	35.166
992.0	35.224
993.0	35.269
994.0	35.310
995.0	35.335
996.0	35.395
997.0	35.487
998.0	35.578
999.0	35.662
1000.0	35.671
1001.0	35.699
1002.0	35.739
1003.0	35.805
1004.0	35.879
1005.0	35.950
1006.0	36.025
1007.0	36.073
1008.0	36.134
1009.0	36.197
1010.0	36.263
1011.0	36.304
1012.0	36.365
1013.0	36.439
1014.0	36.474
1015.0	36.522
1016.0	36.586
1017.0	36.676
1018.0	36.730
1019.0	36.788
1020.0	36.833
1021.0	36.911
1022.0	36.935
1023.0	37.005
1024.0	37.062
1025.0	37.154
1026.0	37.241
1027.0	37.301
1028.0	37.359
1029.0	37.412
1030.0	37.493
1031.0	37.561
1032.0	37.618
1033.0	37.678
1034.0	37.758
1035.0	37.848
1036.0	37.908
1037.0	37.968
1038.0	38.028
1039.0	38.089
1040.0	38.140
1041.0	38.201
1042.0	38.283
1043.0	38.389
1044.0	38.469
1045.0	38.542
1046.0	38.595
1047.0	38.671
1048.0	38.747
1049.0	38.811
1050.0	38.889
1051.0	38.973
1052.0	39.039
1053.0	39.104
1054.0	39.155
1055.0	39.221
1056.0	39.291
1057.0	39.373
1058.0	39.456
1059.0	39.541
1060.0	39.615
1061.0	39.694
1062.0	39.740
1063.0	39.829
1064.0	39.917
1065.0	40.002
1066.0	40.066
1067.0	40.141
1068.0	40.236
1069.0	40.303
1070.0	40.383
1071.0	40.443
1072.0	40.519
1073.0	40.594
1074.0	40.676
1075.0	40.767
1076.0	40.848
1077.0	40.932
1078.0	41.010
1079.0	41.079
1080.0	41.172
1081.0	41.238
1082.0	41.307
1083.0	41.379
1084.0	41.472
1085.0	41.562
1086.0	41.615
1087.0	41.704
1088.0	41.791
1089.0	41.888
1090.0	41.950
1091.0	42.048
1092.0	42.158
1093.0	42.251
1094.0	42.315
1095.0	42.379
1096.0	42.449
1097.0	42.533
1098.0	42.633
1099.0	42.724
1100.0	42.817
1101.0	42.894
1102.0	42.993
1103.0	43.085
1104.0	43.173
1105.0	43.259
1106.0	43.324
1107.0	43.397
1108.0	43.468
1109.0	43.571
1110.0	43.646
1111.0	43.731
1112.0	43.781
1113.0	43.877
1114.0	43.956
1115.0	44.038
1116.0	44.093
1117.0	44.175
1118.0	44.261
1119.0	44.344
1120.0	44.411
1121.0	44.474
1122.0	44.547
1123.0	44.636
1124.0	44.728
1125.0	44.818
1126.0	44.875
1127.0	44.950
1128.0	45.013
1129.0	45.102
1130.0	45.184
1131.0	45.244
1132.0	45.306
1133.0	45.363
1134.0	45.457
1135.0	45.529
1136.0	45.596
1137.0	45.671
1138.0	45.747
1139.0	45.838
1140.0	45.903
1141.0	45.975
1142.0	46.030
1143.0	46.091
1144.0	46.140
1145.0	46.201
1146.0	46.257
1147.0	46.310
1148.0	46.382
1149.0	46.457
1150.0	46.541
1151.0	46.605
1152.0	46.670
1153.0	46.729
1154.0	46.785
1155.0	46.832
1156.0	46.911
1157.0	46.984
1158.0	47.044
1159.0	47.106
1160.0	47.148
1161.0	47.217
1162.0	47.284
1163.0	47.351
1164.0	47.415
1165.0	47.457
1166.0	47.506
1167.0	47.547
1168.0	47.569
1169.0	47.612
1170.0	47.663
1171.0	47.749
1172.0	47.823
1173.0	47.890
1174.0	47.935
1175.0	47.975
1176.0	48.009
1177.0	48.063
1178.0	48.089
1179.0	48.126
1180.0	48.159
1181.0	48.208
1182.0	48.268
1183.0	48.310
1184.0	48.350
1185.0	48.385
1186.0	48.410
1187.0	48.451
1188.0	48.474
1189.0	48.525
1190.0	48.551
1191.0	48.597
1192.0	48.632
1193.0	48.685
1194.0	48.714
1195.0	48.746
1196.0	48.782
1197.0	48.820
1198.0	48.837
1199.0	48.842
1200.0	48.854
1201.0	48.874
1202.0	48.907
1203.0	48.933
1204.0	48.969
1205.0	48.987
1206.0	49.003
1207.0	49.020
1208.0	49.039
1209.0	49.074
1210.0	49.090
1211.0	49.109
1212.0	49.133
1213.0	49.126
1214.0	49.145
1215.0	49.142
1216.0	49.188
1217.0	49.206
1218.0	49.216
1219.0	49.207
1220.0	49.210
1221.0	49.231
1222.0	49.244
1223.0	49.258
1224.0	49.244
1225.0	49.268
1226.0	49.268
1227.0	49.286
1228.0	49.274
1229.0	49.269
1230.0	49.259
1231.0	49.258
1232.0	49.256
1233.0	49.247
1234.0	49.245
1235.0	49.237
1236.0	49.244
1237.0	49.225
1238.0	49.224
1239.0	49.232
1240.0	49.223
1241.0	49.228
1242.0	49.215
1243.0	49.204
1244.0	49.171
1245.0	49.169
1246.0	49.156
1247.0	49.146
1248.0	49.110
1249.0	49.118
1250.0	49.092
1251.0	49.075
1252.0	49.039
1253.0	49.041
1254.0	49.023
1255.0	48.994
1256.0	48.959
1257.0	48.943
1258.0	48.941
1259.0	48.911
1260.0	48.891
1261.0	48.854
1262.0	48.840
1263.0	48.815
1264.0	48.810
1265.0	48.812
1266.0	48.772
1267.0	48.721
1268.0	48.683
1269.0	48.662
1270.0	48.660
1271.0	48.635
1272.0	48.631
1273.0	48.611
1274.0	48.585
1275.0	48.567
1276.0	48.540
1277.0	48.514
1278.0	48.480
1279.0	48.449
1280.0	48.413
1281.0	48.362
1282.0	48.337
1283.0	48.319
1284.0	48.296
1285.0	48.262
1286.0	48.232
1287.0	48.198
1288.0	48.188
1289.0	48.132
1290.0	48.089
1291.0	48.025
1292.0	48.012
1293.0	47.984
1294.0	47.948
1295.0	47.894
1296.0	47.851
1297.0	47.829
1298.0	47.797
1299.0	47.766
1300.0	47.734
1301.0	47.711
1302.0	47.671
1303.0	47.608
1304.0	47.524
1305.0	47.473
1306.0	47.438
1307.0	47.415
1308.0	47.372
1309.0	47.303
1310.0	47.241
1311.0	47.197
1312.0	47.158
1313.0	47.122
1314.0	47.067
1315.0	47.028
1316.0	46.991
1317.0	46.967
1318.0	46.919
1319.0	46.869
1320.0	46.836
1321.0	46.828
1322.0	46.842
1323.0	46.797
1324.0	46.766
1325.0	46.711
1326.0	46.659
1327.0	46.595
1328.0	46.527
1329.0	46.461
1330.0	46.404
1331.0	46.337
1332.0	46.325
1333.0	46.284
1334.0	46.239
1335.0	46.177
1336.0	46.125
1337.0	46.104
1338.0	46.078
1339.0	46.033
1340.0	45.990
1341.0	45.938
1342.0	45.909
1343.0	45.863
1344.0	45.816
1345.0	45.766
1346.0	45.713
1347.0	45.660
1348.0	45.613
1349.0	45.560
1350.0	45.498
1351.0	45.439
1352.0	45.374
1353.0	45.328
1354.0	45.278
1355.0	45.222
1356.0	45.156
1357.0	45.083
1358.0	45.025
1359.0	44.961
1360.0	44.906
1361.0	44.844
1362.0	44.789
1363.0	44.751
1364.0	44.703
1365.0	44.657
1366.0	44.597
1367.0	44.569
1368.0	44.506
1369.0	44.449
1370.0	44.419
1371.0	44.368
1372.0	44.335
1373.0	44.278
1374.0	44.265
1375.0	44.214
1376.0	44.159
1377.0	44.079
1378.0	44.003
1379.0	43.929
1380.0	43.899
1381.0	43.831
1382.0	43.762
1383.0	43.677
1384.0	43.636
1385.0	43.599
1386.0	43.572
1387.0	43.526
1388.0	43.463
1389.0	43.399
1390.0	43.377
1391.0	43.340
1392.0	43.288
1393.0	43.201
1394.0	43.126
1395.0	43.062
1396.0	43.020
1397.0	42.948
1398.0	42.913
1399.0	42.826
1400.0	42.820
1401.0	42.808
1402.0	42.770
1403.0	42.723
1404.0	42.642
1405.0	42.616
1406.0	42.549
1407.0	42.511
1408.0	42.511
1409.0	42.508
1410.0	42.442
1411.0	42.397
1412.0	42.349
1413.0	42.342
1414.0	42.312
1415.0	42.279
1416.0	42.251
1417.0	42.182
1418.0	42.133
1419.0	42.087
1420.0	42.062
1421.0	42.046
1422.0	42.025
1423.0	42.018
1424.0	41.975
1425.0	41.930
1426.0	41.846
1427.0	41.846
1428.0	41.786
1429.0	41.771
1430.0	41.687
1431.0	41.649
1432.0	41.613
1433.0	41.569
1434.0	41.565
1435.0	41.509
1436.0	41.508
1437.0	41.421
1438.0	41.384
1439.0	41.307
1440.0	41.304
1441.0	41.254
1442.0	41.232
1443.0	41.175
1444.0	41.146
1445.0	41.068
1446.0	41.052
1447.0	41.007
1448.0	40.974
1449.0	40.926
1450.0	40.897
1451.0	40.880
1452.0	40.850
1453.0	40.815
1454.0	40.785
1455.0	40.754
1456.0	40.718
1457.0	40.666
1458.0	40.636
1459.0	40.575
1460.0	40.545
1461.0	40.456
1462.0	40.450
1463.0	40.434
1464.0	40.418
1465.0	40.400
1466.0	40.361
1467.0	40.357
1468.0	40.265
1469.0	40.208
1470.0	40.125
1471.0	40.112
1472.0	40.078
1473.0	40.045
1474.0	39.967
1475.0	39.920
1476.0	39.905
1477.0	39.909
1478.0	39.856
1479.0	39.818
1480.0	39.774
1481.0	39.748
1482.0	39.735
1483.0	39.719
1484.0	39.700
1485.0	39.636
1486.0	39.578
1487.0	39.540
1488.0	39.515
1489.0	39.485
1490.0	39.443
1491.0	39.374
1492.0	39.333
1493.0	39.288
1494.0	39.277
1495.0	39.228
1496.0	39.199
1497.0	39.173
1498.0	39.146
1499.0	39.139
1500.0	39.098
1501.0	39.081
1502.0	39.022
1503.0	38.965
1504.0	38.939
1505.0	38.891
1506.0	38.865
1507.0	38.829
1508.0	38.787
1509.0	38.756
1510.0	38.709
1511.0	38.705
1512.0	38.681
1513.0	38.676
1514.0	38.641
1515.0	38.602
1516.0	38.544
1517.0	38.472
1518.0	38.429
1519.0	38.402
1520.0	38.412
1521.0	38.350
1522.0	38.309
1523.0	38.256
1524.0	38.275
1525.0	38.213
1526.0	38.218
1527.0	38.163
1528.0	38.101
1529.0	38.092
1530.0	38.079
1531.0	38.126
1532.0	38.035
1533.0	37.976
1534.0	37.950
1535.0	37.917
1536.0	37.928
1537.0	37.866
1538.0	37.824
1539.0	37.746
1540.0	37.694
1541.0	37.706
1542.0	37.676
1543.0	37.679
1544.0	37.624
1545.0	37.586
1546.0	37.540
1547.0	37.491
1548.0	37.505
1549.0	37.484
1550.0	37.480
1551.0	37.404
1552.0	37.363
1553.0	37.313
1554.0	37.298
1555.0	37.262
1556.0	37.265
1557.0	37.242
1558.0	37.176
1559.0	37.121
1560.0	37.090
1561.0	37.097
1562.0	37.062
1563.0	37.047
1564.0	37.012
1565.0	36.980
1566.0	36.928
1567.0	36.894
1568.0	36.837
1569.0	36.785
1570.0	36.782
1571.0	36.802
1572.0	36.839
1573.0	36.790
1574.0	36.754
1575.0	36.703
1576.0	36.683
1577.0	36.643
1578.0	36.606
1579.0	36.582
1580.0	36.552
1581.0	36.505
1582.0	36.478
1583.0	36.438
1584.0	36.410
1585.0	36.404
1586.0	36.388
1587.0	36.393
1588.0	36.354
1589.0	36.332
1590.0	36.290
1591.0	36.262
1592.0	36.192
1593.0	36.176
1594.0	36.166
1595.0	36.196
1596.0	36.177
1597.0	36.129
1598.0	36.054
1599.0	35.991
1600.0	35.971
1601.0	35.983
1602.0	35.977
1603.0	35.914
1604.0	35.833
1605.0	35.787
1606.0	35.791
1607.0	35.836
1608.0	35.828
1609.0	35.830
1610.0	35.753
1611.0	35.739
1612.0	35.648
1613.0	35.652
1614.0	35.620
1615.0	35.618
1616.0	35.613
1617.0	35.598
1618.0	35.585
1619.0	35.535
1620.0	35.476
1621.0	35.442
1622.0	35.384
1623.0	35.364
1624.0	35.358
1625.0	35.392
1626.0	35.391
1627.0	35.299
1628.0	35.220
1629.0	35.165
1630.0	35.211
1631.0	35.236
1632.0	35.254
1633.0	35.173
1634.0	35.105
1635.0	35.074
1636.0	35.106
1637.0	35.106
1638.0	35.031
1639.0	35.008
1640.0	34.993
1641.0	35.022
1642.0	34.936
1643.0	34.887
1644.0	34.854
1645.0	34.883
1646.0	34.921
1647.0	34.903
1648.0	34.845
1649.0	34.823
1650.0	34.728
1651.0	34.793
1652.0	34.332
1653.0	34.015
1654.0	34.172
1655.0	34.419
1656.0	34.464
1657.0	34.371
1658.0	34.466
1659.0	34.622
1660.0	34.453
1661.0	34.753
1662.0	34.908
1663.0	34.974
1664.0	34.268
1665.0	33.799
1666.0	33.837
1667.0	34.273
1668.0	35.038
1669.0	34.620
1670.0	34.376
1671.0	33.882
1672.0	34.231
1673.0	34.311
1674.0	34.094
1675.0	33.561
1676.0	33.749
1677.0	33.744
1678.0	33.850
1679.0	33.563
1680.0	33.786
1681.0	33.896
1682.0	33.428
1683.0	33.447
1684.0	33.188
1685.0	33.400
1686.0	33.216
1687.0	33.473
1688.0	33.865
1689.0	33.868
1690.0	33.775
1691.0	33.276
1692.0	33.273
1693.0	32.724
1694.0	32.615
1695.0	32.190
1696.0	32.637
1697.0	33.117
1698.0	33.458
1699.0	33.977
1700.0	34.110
1701.0	34.399
1702.0	33.712
1703.0	33.666
1704.0	33.041
1705.0	33.106
1706.0	33.076
1707.0	33.682
1708.0	33.567
1709.0	33.232
1710.0	33.166
1711.0	33.210
1712.0	33.129
1713.0	32.361
1714.0	32.802
1715.0	33.127
1716.0	33.647
1717.0	33.774
1718.0	33.646
1719.0	33.838
1720.0	33.438
1721.0	33.566
1722.0	33.265
1723.0	33.294
1724.0	32.874
1725.0	32.724
1726.0	32.956
1727.0	32.896
1728.0	32.952
1729.0	32.909
1730.0	33.120
1731.0	33.378
1732.0	32.521
1733.0	32.531
1734.0	32.137
1735.0	33.443
1736.0	33.633
1737.0	33.416
1738.0	32.175
1739.0	31.619
1740.0	31.969
1741.0	32.051
1742.0	32.514
1743.0	32.014
1744.0	32.110
1745.0	32.080
1746.0	32.789
1747.0	32.849
1748.0	33.005
1749.0	32.889
1750.0	33.454
1751.0	32.984
1752.0	32.928
1753.0	32.846
1754.0	32.616
1755.0	32.496
1756.0	32.142
1757.0	32.585
1758.0	32.371
1759.0	31.700
1760.0	31.405
1761.0	31.861
1762.0	32.579
1763.0	32.572
1764.0	32.017
1765.0	31.752
1766.0	31.606
1767.0	31.797
1768.0	31.694
1769.0	31.857
1770.0	32.212
1771.0	32.384
1772.0	32.416
1773.0	32.127
1774.0	32.362
1775.0	31.880
1776.0	32.365
1777.0	32.222
1778.0	32.451
1779.0	31.567
1780.0	31.716
1781.0	32.378
1782.0	32.913
1783.0	32.950
1784.0	32.495
1785.0	32.471
1786.0	32.359
1787.0	32.532
1788.0	33.163
1789.0	33.235
1790.0	33.171
1791.0	32.631
1792.0	31.790
1793.0	31.478
1794.0	30.731
1795.0	31.354
1796.0	31.635
1797.0	31.872
1798.0	31.188
1799.0	31.697
1800.0	31.547
1801.0	31.698
1802.0	30.903
1803.0	30.926
1804.0	30.794
1805.0	31.150
1806.0	31.952
1807.0	32.401
1808.0	32.009
1809.0	31.846
1810.0	31.687
1811.0	31.932
1812.0	31.474
1813.0	31.104
1814.0	30.314
1815.0	29.846
1816.0	30.080
1817.0	30.567
1818.0	30.299
1819.0	31.203
1820.0	30.772
1821.0	30.683
1822.0	29.315
1823.0	29.458
1824.0	29.868
1825.0	30.648
1826.0	31.425
1827.0	31.817
1828.0	31.323
1829.0	30.761
1830.0	30.698
1831.0	30.689
1832.0	30.240
1833.0	30.220
1834.0	30.870
1835.0	31.767
1836.0	31.864
1837.0	30.390
1838.0	29.707
1839.0	29.529
1840.0	30.662
1841.0	31.233
1842.0	31.762
1843.0	30.743
1844.0	30.574
1845.0	30.169
1846.0	31.462
1847.0	31.113
1848.0	31.291
1849.0	31.329
1850.0	31.281
1851.0	31.109
1852.0	30.285
1853.0	29.914
1854.0	30.341
1855.0	30.067
1856.0	30.113
1857.0	29.121
1858.0	29.642
1859.0	29.931
1860.0	30.123
1861.0	30.724
1862.0	31.520
1863.0	31.770
1864.0	31.476
1865.0	31.064
1866.0	30.802
1867.0	31.018
1868.0	30.976
1869.0	30.815
1870.0	30.461
1871.0	30.886
1872.0	30.670
1873.0	29.617
1874.0	28.442
1875.0	29.571
1876.0	30.367
1877.0	30.856
1878.0	29.983
1879.0	29.780
1880.0	29.388
1881.0	29.121
1882.0	30.278
1883.0	29.874
1884.0	29.472
1885.0	29.046
1886.0	29.820
1887.0	30.102
1888.0	30.056
1889.0	29.821
1890.0	30.432
1891.0	29.365
1892.0	28.835
1893.0	28.866
1894.0	29.955
1895.0	31.182
1896.0	30.933
1897.0	30.677
1898.0	30.136
1899.0	29.556
1900.0	29.173
1901.0	29.870
1902.0	31.039
1903.0	31.176
1904.0	30.490
1905.0	29.031
1906.0	29.305
1907.0	28.563
1908.0	29.751
1909.0	29.432
1910.0	30.317
1911.0	29.161
1912.0	29.497
1913.0	29.027
1914.0	30.475
1915.0	29.942
1916.0	29.576
1917.0	29.618
1918.0	30.096
1919.0	31.324
1920.0	31.108
1921.0	30.168
1922.0	30.197
1923.0	29.222
1924.0	30.410
1925.0	28.988
1926.0	28.673
1927.0	27.856
1928.0	28.619
1929.0	30.531
1930.0	32.117
1931.0	32.625
1932.0	32.198
1933.0	30.345
1934.0	29.378
1935.0	28.219
1936.0	27.816
1937.0	29.265
1938.0	29.663
1939.0	30.543
1940.0	29.853
1941.0	29.080
1942.0	29.734
1943.0	29.953
1944.0	31.447
1945.0	31.762
1946.0	30.523
1947.0	29.136
1948.0	28.825
1949.0	28.238
1950.0	28.355
1951.0	26.829
1952.0	28.802
1953.0	28.813
1954.0	30.620
1955.0	29.823
1956.0	30.777
1957.0	29.927
1958.0	28.683
1959.0	28.449
1960.0	28.269
1961.0	28.801
1962.0	29.138
1963.0	29.263
1964.0	29.338
1965.0	28.838
1966.0	27.658
1967.0	27.928
1968.0	28.305
1969.0	28.514
1970.0	28.661
1971.0	28.041
1972.0	28.756
1973.0	29.514
1974.0	28.843
1975.0	27.919
1976.0	27.106
1977.0	28.218
1978.0	29.146
1979.0	29.528
1980.0	30.297
1981.0	31.114
1982.0	30.838
1983.0	29.030
1984.0	27.456
1985.0	27.630
1986.0	29.152
1987.0	29.899
1988.0	29.291
1989.0	29.240
1990.0	28.482
1991.0	29.968
1992.0	28.831
1993.0	29.332
1994.0	28.417
1995.0	28.921
1996.0	29.941
1997.0	29.751
1998.0	29.695
1999.0	29.064
2000.0	29.251
