[SUMMARY]
Software Information
Software Name:	UVProbe
Version:	2.43
Mode:	Normal Mode

Data Information
Data is:	Original
Analyst:	
Date/Time:	23/02/2023 18:50:58
Comments:	

Instrument Information
Instrument Name:	SolidSpec3700
Instrument Type:	SolidSpec-3700 Series
Model (S/N):	SolidSpec3700 ( A11085100264CZ )

[METHOD]
[Measurement Properties]
Wavelength Range (nm.):	285,00 to 1600,00
Scan Speed:	Medium
Sampling Interval:	1,0
Auto Sampling Interval:	Disabled
Scan Mode:	Single

[Sample Preparation Properties]
Weight:	
Volume:	
Dilution:	
Path Length:	
Additional Information:	

[Instrument Properties]
Instrument Type:	SolidSpec-3700 Series
Measuring Mode:	Reflectance
Slit Width:	5,0 nm
Time Constant:	1,0 sec.
Source Lamp:	Auto
Light Source Change Wavelength:	282,00 nm
Detector Unit:	Integral Sphere
Detector Change Wavelength:	900,00 nm  1650,00 nm
Grating Change Wavelength:	800,00 nm
S/R Exchange:	Inverse
Detector Lock:	Auto
Slit Program:	Fixed
Beam Mode:	Double
Stair Correction:	Disable

[Attachment Properties]
Attachment:	X-Y Stage
Sequence File:	Positions.xys

[Operation]
Threshold:	0,0010000
Points:	4
InterPolate:	Disabled
Average:	Disabled

[DATA]
Wavelength	Data
285.0	5.567
286.0	5.590
287.0	5.623
288.0	5.649
289.0	5.637
290.0	5.719
291.0	5.711
292.0	5.728
293.0	5.647
294.0	5.685
295.0	5.713
296.0	5.758
297.0	5.788
298.0	5.821
299.0	5.808
300.0	5.792
301.0	5.813
302.0	5.796
303.0	5.825
304.0	5.761
305.0	5.736
306.0	5.689
307.0	5.675
308.0	5.687
309.0	5.709
310.0	5.704
311.0	5.692
312.0	5.621
313.0	5.589
314.0	5.586
315.0	5.540
316.0	5.525
317.0	5.449
318.0	5.461
319.0	5.404
320.0	5.360
321.0	5.308
322.0	5.283
323.0	5.274
324.0	5.255
325.0	5.259
326.0	5.215
327.0	5.172
328.0	5.141
329.0	5.151
330.0	5.129
331.0	5.103
332.0	5.109
333.0	5.113
334.0	5.109
335.0	5.083
336.0	5.084
337.0	5.051
338.0	5.057
339.0	5.066
340.0	5.071
341.0	5.068
342.0	5.077
343.0	5.111
344.0	5.097
345.0	5.089
346.0	5.078
347.0	5.102
348.0	5.147
349.0	5.179
350.0	5.226
351.0	5.255
352.0	5.301
353.0	5.325
354.0	5.357
355.0	5.391
356.0	5.434
357.0	5.451
358.0	5.487
359.0	5.514
360.0	5.556
361.0	5.577
362.0	5.602
363.0	5.636
364.0	5.666
365.0	5.673
366.0	5.675
367.0	5.691
368.0	5.710
369.0	5.713
370.0	5.702
371.0	5.713
372.0	5.710
373.0	5.700
374.0	5.686
375.0	5.659
376.0	5.653
377.0	5.633
378.0	5.626
379.0	5.602
380.0	5.576
381.0	5.536
382.0	5.506
383.0	5.473
384.0	5.455
385.0	5.425
386.0	5.394
387.0	5.360
388.0	5.321
389.0	5.289
390.0	5.264
391.0	5.238
392.0	5.206
393.0	5.180
394.0	5.164
395.0	5.139
396.0	5.107
397.0	5.076
398.0	5.045
399.0	5.015
400.0	4.987
401.0	4.971
402.0	4.947
403.0	4.917
404.0	4.893
405.0	4.875
406.0	4.850
407.0	4.831
408.0	4.820
409.0	4.812
410.0	4.800
411.0	4.793
412.0	4.800
413.0	4.794
414.0	4.787
415.0	4.776
416.0	4.791
417.0	4.803
418.0	4.820
419.0	4.827
420.0	4.844
421.0	4.866
422.0	4.895
423.0	4.919
424.0	4.953
425.0	4.976
426.0	4.999
427.0	5.025
428.0	5.068
429.0	5.112
430.0	5.159
431.0	5.200
432.0	5.248
433.0	5.279
434.0	5.313
435.0	5.362
436.0	5.412
437.0	5.470
438.0	5.521
439.0	5.580
440.0	5.633
441.0	5.684
442.0	5.733
443.0	5.788
444.0	5.834
445.0	5.889
446.0	5.940
447.0	5.992
448.0	6.031
449.0	6.077
450.0	6.123
451.0	6.185
452.0	6.236
453.0	6.296
454.0	6.346
455.0	6.400
456.0	6.448
457.0	6.488
458.0	6.531
459.0	6.576
460.0	6.626
461.0	6.664
462.0	6.701
463.0	6.747
464.0	6.793
465.0	6.827
466.0	6.858
467.0	6.890
468.0	6.934
469.0	6.963
470.0	6.998
471.0	7.028
472.0	7.068
473.0	7.106
474.0	7.150
475.0	7.192
476.0	7.224
477.0	7.258
478.0	7.286
479.0	7.329
480.0	7.353
481.0	7.385
482.0	7.398
483.0	7.434
484.0	7.462
485.0	7.492
486.0	7.510
487.0	7.527
488.0	7.546
489.0	7.562
490.0	7.586
491.0	7.607
492.0	7.634
493.0	7.648
494.0	7.672
495.0	7.681
496.0	7.700
497.0	7.699
498.0	7.719
499.0	7.728
500.0	7.744
501.0	7.745
502.0	7.750
503.0	7.757
504.0	7.775
505.0	7.779
506.0	7.795
507.0	7.803
508.0	7.816
509.0	7.816
510.0	7.808
511.0	7.797
512.0	7.781
513.0	7.777
514.0	7.775
515.0	7.776
516.0	7.767
517.0	7.769
518.0	7.766
519.0	7.758
520.0	7.750
521.0	7.745
522.0	7.742
523.0	7.736
524.0	7.714
525.0	7.685
526.0	7.663
527.0	7.658
528.0	7.650
529.0	7.624
530.0	7.588
531.0	7.561
532.0	7.539
533.0	7.522
534.0	7.503
535.0	7.482
536.0	7.453
537.0	7.419
538.0	7.384
539.0	7.368
540.0	7.348
541.0	7.328
542.0	7.301
543.0	7.279
544.0	7.249
545.0	7.223
546.0	7.190
547.0	7.172
548.0	7.150
549.0	7.122
550.0	7.089
551.0	7.065
552.0	7.047
553.0	7.026
554.0	6.993
555.0	6.972
556.0	6.951
557.0	6.919
558.0	6.897
559.0	6.870
560.0	6.852
561.0	6.826
562.0	6.800
563.0	6.782
564.0	6.759
565.0	6.751
566.0	6.734
567.0	6.711
568.0	6.695
569.0	6.670
570.0	6.652
571.0	6.626
572.0	6.615
573.0	6.597
574.0	6.569
575.0	6.550
576.0	6.537
577.0	6.530
578.0	6.512
579.0	6.491
580.0	6.473
581.0	6.461
582.0	6.457
583.0	6.465
584.0	6.457
585.0	6.443
586.0	6.428
587.0	6.418
588.0	6.410
589.0	6.399
590.0	6.400
591.0	6.393
592.0	6.391
593.0	6.385
594.0	6.386
595.0	6.378
596.0	6.373
597.0	6.369
598.0	6.362
599.0	6.363
600.0	6.364
601.0	6.369
602.0	6.362
603.0	6.362
604.0	6.360
605.0	6.365
606.0	6.354
607.0	6.366
608.0	6.357
609.0	6.365
610.0	6.356
611.0	6.366
612.0	6.365
613.0	6.371
614.0	6.367
615.0	6.371
616.0	6.371
617.0	6.380
618.0	6.386
619.0	6.393
620.0	6.400
621.0	6.404
622.0	6.413
623.0	6.424
624.0	6.432
625.0	6.433
626.0	6.426
627.0	6.438
628.0	6.440
629.0	6.456
630.0	6.453
631.0	6.479
632.0	6.480
633.0	6.482
634.0	6.482
635.0	6.487
636.0	6.512
637.0	6.517
638.0	6.541
639.0	6.545
640.0	6.557
641.0	6.566
642.0	6.576
643.0	6.581
644.0	6.602
645.0	6.615
646.0	6.635
647.0	6.630
648.0	6.648
649.0	6.660
650.0	6.675
651.0	6.685
652.0	6.698
653.0	6.719
654.0	6.728
655.0	6.741
656.0	6.744
657.0	6.758
658.0	6.773
659.0	6.791
660.0	6.808
661.0	6.805
662.0	6.815
663.0	6.827
664.0	6.847
665.0	6.860
666.0	6.882
667.0	6.905
668.0	6.928
669.0	6.956
670.0	6.989
671.0	7.022
672.0	7.044
673.0	7.066
674.0	7.072
675.0	7.087
676.0	7.095
677.0	7.123
678.0	7.133
679.0	7.154
680.0	7.176
681.0	7.209
682.0	7.228
683.0	7.243
684.0	7.276
685.0	7.312
686.0	7.340
687.0	7.345
688.0	7.355
689.0	7.349
690.0	7.369
691.0	7.392
692.0	7.450
693.0	7.460
694.0	7.479
695.0	7.493
696.0	7.534
697.0	7.558
698.0	7.583
699.0	7.614
700.0	7.634
701.0	7.665
702.0	7.675
703.0	7.713
704.0	7.722
705.0	7.726
706.0	7.752
707.0	7.767
708.0	7.800
709.0	7.811
710.0	7.847
711.0	7.879
712.0	7.901
713.0	7.926
714.0	7.964
715.0	8.003
716.0	8.026
717.0	8.041
718.0	8.075
719.0	8.103
720.0	8.141
721.0	8.147
722.0	8.172
723.0	8.182
724.0	8.234
725.0	8.254
726.0	8.286
727.0	8.276
728.0	8.306
729.0	8.356
730.0	8.395
731.0	8.418
732.0	8.426
733.0	8.451
734.0	8.470
735.0	8.484
736.0	8.492
737.0	8.507
738.0	8.531
739.0	8.562
740.0	8.614
741.0	8.635
742.0	8.671
743.0	8.704
744.0	8.745
745.0	8.780
746.0	8.797
747.0	8.826
748.0	8.847
749.0	8.855
750.0	8.860
751.0	8.895
752.0	8.914
753.0	8.952
754.0	8.975
755.0	9.009
756.0	9.024
757.0	9.047
758.0	9.080
759.0	9.129
760.0	9.166
761.0	9.245
762.0	9.253
763.0	9.259
764.0	9.240
765.0	9.283
766.0	9.333
767.0	9.350
768.0	9.372
769.0	9.375
770.0	9.429
771.0	9.438
772.0	9.481
773.0	9.475
774.0	9.515
775.0	9.516
776.0	9.531
777.0	9.530
778.0	9.603
779.0	9.643
780.0	9.685
781.0	9.682
782.0	9.697
783.0	9.727
784.0	9.734
785.0	9.786
786.0	9.791
787.0	9.841
788.0	9.840
789.0	9.888
790.0	9.896
791.0	9.933
792.0	9.930
793.0	9.951
794.0	9.945
795.0	9.991
796.0	10.001
797.0	10.025
798.0	10.037
799.0	10.069
800.0	10.131
801.0	10.174
802.0	10.226
803.0	10.255
804.0	10.284
805.0	10.314
806.0	10.338
807.0	10.353
808.0	10.360
809.0	10.386
810.0	10.430
811.0	10.467
812.0	10.481
813.0	10.491
814.0	10.525
815.0	10.563
816.0	10.584
817.0	10.590
818.0	10.597
819.0	10.631
820.0	10.630
821.0	10.681
822.0	10.692
823.0	10.747
824.0	10.733
825.0	10.749
826.0	10.756
827.0	10.769
828.0	10.809
829.0	10.844
830.0	10.872
831.0	10.853
832.0	10.879
833.0	10.911
834.0	10.929
835.0	10.929
836.0	10.931
837.0	10.969
838.0	10.977
839.0	11.010
840.0	11.024
841.0	11.029
842.0	11.064
843.0	11.078
844.0	11.076
845.0	11.052
846.0	11.057
847.0	11.110
848.0	11.182
849.0	11.196
850.0	11.198
851.0	11.124
852.0	11.156
853.0	11.168
854.0	11.220
855.0	11.196
856.0	11.204
857.0	11.223
858.0	11.215
859.0	11.246
860.0	11.236
861.0	11.286
862.0	11.262
863.0	11.219
864.0	11.178
865.0	11.146
866.0	11.195
867.0	11.324
868.0	11.335
869.0	11.429
870.0	11.360
871.0	11.493
872.0	11.439
873.0	11.505
874.0	11.480
875.0	11.570
876.0	11.613
877.0	11.632
878.0	11.602
879.0	11.605
880.0	11.717
881.0	11.684
882.0	11.914
883.0	11.890
884.0	12.013
885.0	11.835
886.0	11.814
887.0	11.734
888.0	11.833
889.0	11.884
890.0	12.011
891.0	11.880
892.0	11.648
893.0	11.343
894.0	11.414
895.0	11.489
896.0	11.894
897.0	12.052
898.0	12.075
899.0	11.911
900.0	11.906
901.0	12.232
902.0	12.358
903.0	12.192
904.0	12.179
905.0	12.203
906.0	12.316
907.0	12.136
908.0	12.261
909.0	12.324
910.0	12.436
911.0	12.343
912.0	12.431
913.0	12.496
914.0	12.606
915.0	12.520
916.0	12.449
917.0	12.439
918.0	12.464
919.0	12.506
920.0	12.450
921.0	12.361
922.0	12.424
923.0	12.484
924.0	12.512
925.0	12.440
926.0	12.441
927.0	12.455
928.0	12.526
929.0	12.490
930.0	12.500
931.0	12.485
932.0	12.502
933.0	12.525
934.0	12.571
935.0	12.569
936.0	12.608
937.0	12.556
938.0	12.594
939.0	12.589
940.0	12.627
941.0	12.613
942.0	12.643
943.0	12.605
944.0	12.517
945.0	12.506
946.0	12.588
947.0	12.686
948.0	12.692
949.0	12.680
950.0	12.652
951.0	12.661
952.0	12.633
953.0	12.637
954.0	12.640
955.0	12.650
956.0	12.666
957.0	12.646
958.0	12.674
959.0	12.679
960.0	12.678
961.0	12.650
962.0	12.649
963.0	12.695
964.0	12.683
965.0	12.676
966.0	12.659
967.0	12.692
968.0	12.690
969.0	12.685
970.0	12.709
971.0	12.741
972.0	12.753
973.0	12.748
974.0	12.706
975.0	12.689
976.0	12.645
977.0	12.632
978.0	12.650
979.0	12.681
980.0	12.671
981.0	12.651
982.0	12.658
983.0	12.693
984.0	12.706
985.0	12.652
986.0	12.632
987.0	12.631
988.0	12.659
989.0	12.646
990.0	12.607
991.0	12.599
992.0	12.621
993.0	12.628
994.0	12.610
995.0	12.642
996.0	12.637
997.0	12.647
998.0	12.628
999.0	12.641
1000.0	12.624
1001.0	12.593
1002.0	12.572
1003.0	12.595
1004.0	12.615
1005.0	12.623
1006.0	12.605
1007.0	12.592
1008.0	12.599
1009.0	12.576
1010.0	12.572
1011.0	12.563
1012.0	12.574
1013.0	12.541
1014.0	12.509
1015.0	12.501
1016.0	12.515
1017.0	12.523
1018.0	12.503
1019.0	12.509
1020.0	12.500
1021.0	12.510
1022.0	12.489
1023.0	12.486
1024.0	12.486
1025.0	12.493
1026.0	12.490
1027.0	12.454
1028.0	12.450
1029.0	12.439
1030.0	12.450
1031.0	12.451
1032.0	12.457
1033.0	12.450
1034.0	12.415
1035.0	12.396
1036.0	12.384
1037.0	12.402
1038.0	12.405
1039.0	12.409
1040.0	12.372
1041.0	12.353
1042.0	12.334
1043.0	12.363
1044.0	12.359
1045.0	12.362
1046.0	12.333
1047.0	12.311
1048.0	12.296
1049.0	12.270
1050.0	12.274
1051.0	12.296
1052.0	12.320
1053.0	12.311
1054.0	12.265
1055.0	12.218
1056.0	12.239
1057.0	12.222
1058.0	12.247
1059.0	12.201
1060.0	12.217
1061.0	12.188
1062.0	12.190
1063.0	12.166
1064.0	12.139
1065.0	12.132
1066.0	12.135
1067.0	12.158
1068.0	12.159
1069.0	12.143
1070.0	12.145
1071.0	12.135
1072.0	12.126
1073.0	12.099
1074.0	12.085
1075.0	12.083
1076.0	12.086
1077.0	12.057
1078.0	12.069
1079.0	12.066
1080.0	12.096
1081.0	12.063
1082.0	12.053
1083.0	12.007
1084.0	11.999
1085.0	11.979
1086.0	11.974
1087.0	11.955
1088.0	11.942
1089.0	11.930
1090.0	11.924
1091.0	11.929
1092.0	11.922
1093.0	11.911
1094.0	11.911
1095.0	11.890
1096.0	11.885
1097.0	11.864
1098.0	11.879
1099.0	11.897
1100.0	11.863
1101.0	11.850
1102.0	11.812
1103.0	11.837
1104.0	11.834
1105.0	11.836
1106.0	11.800
1107.0	11.792
1108.0	11.765
1109.0	11.768
1110.0	11.780
1111.0	11.766
1112.0	11.765
1113.0	11.742
1114.0	11.763
1115.0	11.756
1116.0	11.738
1117.0	11.749
1118.0	11.752
1119.0	11.749
1120.0	11.722
1121.0	11.696
1122.0	11.706
1123.0	11.694
1124.0	11.691
1125.0	11.669
1126.0	11.670
1127.0	11.650
1128.0	11.649
1129.0	11.632
1130.0	11.636
1131.0	11.610
1132.0	11.621
1133.0	11.623
1134.0	11.654
1135.0	11.646
1136.0	11.652
1137.0	11.637
1138.0	11.639
1139.0	11.635
1140.0	11.631
1141.0	11.628
1142.0	11.640
1143.0	11.627
1144.0	11.616
1145.0	11.600
1146.0	11.619
1147.0	11.625
1148.0	11.616
1149.0	11.601
1150.0	11.589
1151.0	11.606
1152.0	11.602
1153.0	11.600
1154.0	11.597
1155.0	11.581
1156.0	11.589
1157.0	11.592
1158.0	11.600
1159.0	11.597
1160.0	11.589
1161.0	11.599
1162.0	11.594
1163.0	11.578
1164.0	11.570
1165.0	11.567
1166.0	11.583
1167.0	11.593
1168.0	11.599
1169.0	11.598
1170.0	11.604
1171.0	11.598
1172.0	11.578
1173.0	11.559
1174.0	11.565
1175.0	11.572
1176.0	11.603
1177.0	11.620
1178.0	11.635
1179.0	11.624
1180.0	11.617
1181.0	11.612
1182.0	11.617
1183.0	11.621
1184.0	11.628
1185.0	11.605
1186.0	11.621
1187.0	11.626
1188.0	11.661
1189.0	11.666
1190.0	11.664
1191.0	11.652
1192.0	11.642
1193.0	11.661
1194.0	11.687
1195.0	11.685
1196.0	11.686
1197.0	11.685
1198.0	11.706
1199.0	11.716
1200.0	11.706
1201.0	11.725
1202.0	11.738
1203.0	11.756
1204.0	11.738
1205.0	11.738
1206.0	11.749
1207.0	11.750
1208.0	11.776
1209.0	11.777
1210.0	11.793
1211.0	11.783
1212.0	11.780
1213.0	11.791
1214.0	11.802
1215.0	11.832
1216.0	11.849
1217.0	11.869
1218.0	11.869
1219.0	11.873
1220.0	11.857
1221.0	11.868
1222.0	11.899
1223.0	11.930
1224.0	11.953
1225.0	11.962
1226.0	11.962
1227.0	11.968
1228.0	11.957
1229.0	11.972
1230.0	11.992
1231.0	12.015
1232.0	12.019
1233.0	12.009
1234.0	12.022
1235.0	12.058
1236.0	12.057
1237.0	12.084
1238.0	12.063
1239.0	12.088
1240.0	12.091
1241.0	12.123
1242.0	12.138
1243.0	12.150
1244.0	12.163
1245.0	12.170
1246.0	12.176
1247.0	12.187
1248.0	12.223
1249.0	12.237
1250.0	12.255
1251.0	12.256
1252.0	12.279
1253.0	12.309
1254.0	12.341
1255.0	12.352
1256.0	12.333
1257.0	12.355
1258.0	12.366
1259.0	12.402
1260.0	12.403
1261.0	12.426
1262.0	12.432
1263.0	12.457
1264.0	12.466
1265.0	12.487
1266.0	12.488
1267.0	12.512
1268.0	12.534
1269.0	12.551
1270.0	12.560
1271.0	12.576
1272.0	12.591
1273.0	12.621
1274.0	12.615
1275.0	12.644
1276.0	12.668
1277.0	12.692
1278.0	12.699
1279.0	12.693
1280.0	12.723
1281.0	12.761
1282.0	12.777
1283.0	12.786
1284.0	12.783
1285.0	12.799
1286.0	12.824
1287.0	12.838
1288.0	12.855
1289.0	12.876
1290.0	12.904
1291.0	12.927
1292.0	12.925
1293.0	12.920
1294.0	12.939
1295.0	12.973
1296.0	12.994
1297.0	13.003
1298.0	13.003
1299.0	13.037
1300.0	13.074
1301.0	13.106
1302.0	13.130
1303.0	13.162
1304.0	13.178
1305.0	13.196
1306.0	13.219
1307.0	13.261
1308.0	13.290
1309.0	13.309
1310.0	13.320
1311.0	13.332
1312.0	13.335
1313.0	13.351
1314.0	13.382
1315.0	13.406
1316.0	13.435
1317.0	13.453
1318.0	13.497
1319.0	13.528
1320.0	13.552
1321.0	13.555
1322.0	13.574
1323.0	13.594
1324.0	13.623
1325.0	13.644
1326.0	13.660
1327.0	13.663
1328.0	13.692
1329.0	13.724
1330.0	13.773
1331.0	13.776
1332.0	13.818
1333.0	13.808
1334.0	13.819
1335.0	13.832
1336.0	13.867
1337.0	13.920
1338.0	13.922
1339.0	13.931
1340.0	13.949
1341.0	13.966
1342.0	13.989
1343.0	13.997
1344.0	14.034
1345.0	14.067
1346.0	14.108
1347.0	14.105
1348.0	14.119
1349.0	14.123
1350.0	14.143
1351.0	14.179
1352.0	14.190
1353.0	14.215
1354.0	14.223
1355.0	14.262
1356.0	14.282
1357.0	14.310
1358.0	14.322
1359.0	14.337
1360.0	14.347
1361.0	14.344
1362.0	14.376
1363.0	14.403
1364.0	14.436
1365.0	14.440
1366.0	14.466
1367.0	14.496
1368.0	14.540
1369.0	14.570
1370.0	14.604
1371.0	14.626
1372.0	14.638
1373.0	14.669
1374.0	14.689
1375.0	14.706
1376.0	14.713
1377.0	14.772
1378.0	14.813
1379.0	14.865
1380.0	14.880
1381.0	14.904
1382.0	14.895
1383.0	14.928
1384.0	14.962
1385.0	15.003
1386.0	15.029
1387.0	15.066
1388.0	15.117
1389.0	15.145
1390.0	15.168
1391.0	15.170
1392.0	15.185
1393.0	15.215
1394.0	15.282
1395.0	15.310
1396.0	15.327
1397.0	15.344
1398.0	15.399
1399.0	15.464
1400.0	15.490
1401.0	15.511
1402.0	15.526
1403.0	15.568
1404.0	15.623
1405.0	15.633
1406.0	15.679
1407.0	15.694
1408.0	15.745
1409.0	15.762
1410.0	15.808
1411.0	15.821
1412.0	15.839
1413.0	15.852
1414.0	15.888
1415.0	15.939
1416.0	15.963
1417.0	16.003
1418.0	16.026
1419.0	16.083
1420.0	16.116
1421.0	16.136
1422.0	16.153
1423.0	16.164
1424.0	16.177
1425.0	16.212
1426.0	16.240
1427.0	16.271
1428.0	16.283
1429.0	16.326
1430.0	16.343
1431.0	16.348
1432.0	16.373
1433.0	16.399
1434.0	16.445
1435.0	16.443
1436.0	16.489
1437.0	16.464
1438.0	16.492
1439.0	16.501
1440.0	16.548
1441.0	16.546
1442.0	16.550
1443.0	16.563
1444.0	16.605
1445.0	16.609
1446.0	16.646
1447.0	16.643
1448.0	16.677
1449.0	16.653
1450.0	16.668
1451.0	16.708
1452.0	16.748
1453.0	16.774
1454.0	16.781
1455.0	16.776
1456.0	16.797
1457.0	16.812
1458.0	16.839
1459.0	16.817
1460.0	16.835
1461.0	16.838
1462.0	16.902
1463.0	16.860
1464.0	16.855
1465.0	16.837
1466.0	16.879
1467.0	16.918
1468.0	16.947
1469.0	16.958
1470.0	16.961
1471.0	16.957
1472.0	16.973
1473.0	17.019
1474.0	17.023
1475.0	17.029
1476.0	17.010
1477.0	17.021
1478.0	17.018
1479.0	17.042
1480.0	17.049
1481.0	17.037
1482.0	17.006
1483.0	17.008
1484.0	17.080
1485.0	17.105
1486.0	17.125
1487.0	17.099
1488.0	17.084
1489.0	17.092
1490.0	17.075
1491.0	17.088
1492.0	17.072
1493.0	17.119
1494.0	17.142
1495.0	17.216
1496.0	17.221
1497.0	17.196
1498.0	17.131
1499.0	17.136
1500.0	17.182
1501.0	17.172
1502.0	17.169
1503.0	17.144
1504.0	17.189
1505.0	17.187
1506.0	17.225
1507.0	17.232
1508.0	17.240
1509.0	17.225
1510.0	17.199
1511.0	17.214
1512.0	17.210
1513.0	17.213
1514.0	17.200
1515.0	17.230
1516.0	17.276
1517.0	17.257
1518.0	17.315
1519.0	17.314
1520.0	17.369
1521.0	17.308
1522.0	17.308
1523.0	17.346
1524.0	17.393
1525.0	17.416
1526.0	17.404
1527.0	17.390
1528.0	17.421
1529.0	17.414
1530.0	17.430
1531.0	17.408
1532.0	17.419
1533.0	17.431
1534.0	17.440
1535.0	17.439
1536.0	17.449
1537.0	17.450
1538.0	17.450
1539.0	17.451
1540.0	17.461
1541.0	17.465
1542.0	17.447
1543.0	17.456
1544.0	17.496
1545.0	17.561
1546.0	17.554
1547.0	17.535
1548.0	17.506
1549.0	17.528
1550.0	17.563
1551.0	17.576
1552.0	17.611
1553.0	17.606
1554.0	17.620
1555.0	17.624
1556.0	17.639
1557.0	17.622
1558.0	17.602
1559.0	17.564
1560.0	17.592
1561.0	17.629
1562.0	17.698
1563.0	17.742
1564.0	17.742
1565.0	17.753
1566.0	17.728
1567.0	17.735
1568.0	17.720
1569.0	17.770
1570.0	17.757
1571.0	17.759
1572.0	17.728
1573.0	17.744
1574.0	17.759
1575.0	17.739
1576.0	17.732
1577.0	17.786
1578.0	17.806
1579.0	17.845
1580.0	17.833
1581.0	17.834
1582.0	17.840
1583.0	17.834
1584.0	17.859
1585.0	17.876
1586.0	17.860
1587.0	17.909
1588.0	17.928
1589.0	17.970
1590.0	17.947
1591.0	17.977
1592.0	18.005
1593.0	18.025
1594.0	17.958
1595.0	17.909
1596.0	17.968
1597.0	18.059
1598.0	18.065
1599.0	18.027
1600.0	18.000
