[SUMMARY]
Software Information
Software Name:	UVProbe
Version:	2.43
Mode:	Normal Mode

Data Information
Data is:	Original
Analyst:	
Date/Time:	23/02/2023 19:12:08
Comments:	

Instrument Information
Instrument Name:	SolidSpec3700
Instrument Type:	SolidSpec-3700 Series
Model (S/N):	SolidSpec3700 ( A11085100264CZ )

[METHOD]
[Measurement Properties]
Wavelength Range (nm.):	285,00 to 1600,00
Scan Speed:	Medium
Sampling Interval:	1,0
Auto Sampling Interval:	Disabled
Scan Mode:	Single

[Sample Preparation Properties]
Weight:	
Volume:	
Dilution:	
Path Length:	
Additional Information:	

[Instrument Properties]
Instrument Type:	SolidSpec-3700 Series
Measuring Mode:	Reflectance
Slit Width:	5,0 nm
Time Constant:	1,0 sec.
Source Lamp:	Auto
Light Source Change Wavelength:	282,00 nm
Detector Unit:	Integral Sphere
Detector Change Wavelength:	900,00 nm  1650,00 nm
Grating Change Wavelength:	800,00 nm
S/R Exchange:	Inverse
Detector Lock:	Auto
Slit Program:	Fixed
Beam Mode:	Double
Stair Correction:	Disable

[Attachment Properties]
Attachment:	X-Y Stage
Sequence File:	Positions.xys

[Operation]
Threshold:	0,0010000
Points:	4
InterPolate:	Disabled
Average:	Disabled

[DATA]
Wavelength	Data
285.0	5.161
286.0	5.238
287.0	5.349
288.0	5.383
289.0	5.477
290.0	5.516
291.0	5.576
292.0	5.548
293.0	5.572
294.0	5.632
295.0	5.673
296.0	5.680
297.0	5.702
298.0	5.758
299.0	5.836
300.0	5.884
301.0	5.888
302.0	5.835
303.0	5.818
304.0	5.806
305.0	5.861
306.0	5.910
307.0	5.911
308.0	5.884
309.0	5.848
310.0	5.845
311.0	5.841
312.0	5.851
313.0	5.872
314.0	5.871
315.0	5.876
316.0	5.853
317.0	5.861
318.0	5.815
319.0	5.831
320.0	5.798
321.0	5.816
322.0	5.770
323.0	5.777
324.0	5.744
325.0	5.768
326.0	5.740
327.0	5.747
328.0	5.707
329.0	5.694
330.0	5.637
331.0	5.631
332.0	5.618
333.0	5.624
334.0	5.606
335.0	5.577
336.0	5.566
337.0	5.523
338.0	5.504
339.0	5.479
340.0	5.456
341.0	5.432
342.0	5.398
343.0	5.368
344.0	5.346
345.0	5.310
346.0	5.284
347.0	5.251
348.0	5.219
349.0	5.204
350.0	5.185
351.0	5.172
352.0	5.135
353.0	5.093
354.0	5.052
355.0	5.016
356.0	4.989
357.0	4.956
358.0	4.911
359.0	4.880
360.0	4.835
361.0	4.791
362.0	4.750
363.0	4.735
364.0	4.713
365.0	4.684
366.0	4.629
367.0	4.595
368.0	4.554
369.0	4.522
370.0	4.495
371.0	4.474
372.0	4.447
373.0	4.416
374.0	4.390
375.0	4.380
376.0	4.378
377.0	4.358
378.0	4.340
379.0	4.337
380.0	4.345
381.0	4.344
382.0	4.332
383.0	4.315
384.0	4.309
385.0	4.311
386.0	4.316
387.0	4.325
388.0	4.306
389.0	4.299
390.0	4.297
391.0	4.296
392.0	4.296
393.0	4.287
394.0	4.284
395.0	4.275
396.0	4.268
397.0	4.258
398.0	4.238
399.0	4.220
400.0	4.204
401.0	4.189
402.0	4.178
403.0	4.156
404.0	4.135
405.0	4.102
406.0	4.085
407.0	4.073
408.0	4.064
409.0	4.056
410.0	4.038
411.0	4.016
412.0	4.003
413.0	3.991
414.0	3.985
415.0	3.963
416.0	3.948
417.0	3.930
418.0	3.929
419.0	3.910
420.0	3.900
421.0	3.877
422.0	3.863
423.0	3.839
424.0	3.813
425.0	3.795
426.0	3.776
427.0	3.757
428.0	3.722
429.0	3.694
430.0	3.663
431.0	3.643
432.0	3.615
433.0	3.587
434.0	3.558
435.0	3.529
436.0	3.501
437.0	3.469
438.0	3.446
439.0	3.428
440.0	3.416
441.0	3.400
442.0	3.387
443.0	3.369
444.0	3.358
445.0	3.333
446.0	3.317
447.0	3.310
448.0	3.307
449.0	3.311
450.0	3.312
451.0	3.318
452.0	3.319
453.0	3.322
454.0	3.329
455.0	3.345
456.0	3.349
457.0	3.358
458.0	3.362
459.0	3.374
460.0	3.387
461.0	3.396
462.0	3.408
463.0	3.419
464.0	3.432
465.0	3.446
466.0	3.464
467.0	3.480
468.0	3.502
469.0	3.511
470.0	3.524
471.0	3.538
472.0	3.566
473.0	3.592
474.0	3.604
475.0	3.613
476.0	3.624
477.0	3.643
478.0	3.664
479.0	3.689
480.0	3.706
481.0	3.721
482.0	3.735
483.0	3.753
484.0	3.764
485.0	3.779
486.0	3.792
487.0	3.810
488.0	3.824
489.0	3.840
490.0	3.856
491.0	3.869
492.0	3.891
493.0	3.901
494.0	3.911
495.0	3.910
496.0	3.925
497.0	3.949
498.0	3.973
499.0	3.987
500.0	3.994
501.0	4.005
502.0	4.013
503.0	4.027
504.0	4.038
505.0	4.054
506.0	4.066
507.0	4.080
508.0	4.087
509.0	4.096
510.0	4.096
511.0	4.105
512.0	4.104
513.0	4.114
514.0	4.121
515.0	4.133
516.0	4.134
517.0	4.132
518.0	4.130
519.0	4.127
520.0	4.129
521.0	4.132
522.0	4.132
523.0	4.128
524.0	4.121
525.0	4.114
526.0	4.112
527.0	4.108
528.0	4.117
529.0	4.110
530.0	4.101
531.0	4.091
532.0	4.080
533.0	4.068
534.0	4.048
535.0	4.037
536.0	4.029
537.0	4.016
538.0	4.004
539.0	3.991
540.0	3.981
541.0	3.964
542.0	3.952
543.0	3.930
544.0	3.915
545.0	3.892
546.0	3.867
547.0	3.849
548.0	3.826
549.0	3.823
550.0	3.805
551.0	3.794
552.0	3.771
553.0	3.751
554.0	3.732
555.0	3.705
556.0	3.685
557.0	3.658
558.0	3.645
559.0	3.622
560.0	3.608
561.0	3.580
562.0	3.557
563.0	3.530
564.0	3.518
565.0	3.507
566.0	3.493
567.0	3.473
568.0	3.454
569.0	3.438
570.0	3.419
571.0	3.405
572.0	3.380
573.0	3.369
574.0	3.346
575.0	3.333
576.0	3.320
577.0	3.309
578.0	3.301
579.0	3.282
580.0	3.270
581.0	3.253
582.0	3.245
583.0	3.242
584.0	3.241
585.0	3.231
586.0	3.218
587.0	3.211
588.0	3.214
589.0	3.215
590.0	3.206
591.0	3.198
592.0	3.191
593.0	3.194
594.0	3.188
595.0	3.186
596.0	3.182
597.0	3.183
598.0	3.185
599.0	3.183
600.0	3.188
601.0	3.197
602.0	3.202
603.0	3.205
604.0	3.207
605.0	3.219
606.0	3.231
607.0	3.238
608.0	3.244
609.0	3.249
610.0	3.261
611.0	3.272
612.0	3.284
613.0	3.299
614.0	3.315
615.0	3.329
616.0	3.335
617.0	3.354
618.0	3.368
619.0	3.387
620.0	3.394
621.0	3.415
622.0	3.434
623.0	3.452
624.0	3.474
625.0	3.490
626.0	3.515
627.0	3.536
628.0	3.559
629.0	3.586
630.0	3.617
631.0	3.650
632.0	3.679
633.0	3.699
634.0	3.727
635.0	3.751
636.0	3.783
637.0	3.806
638.0	3.831
639.0	3.857
640.0	3.883
641.0	3.915
642.0	3.949
643.0	3.985
644.0	4.013
645.0	4.031
646.0	4.064
647.0	4.100
648.0	4.143
649.0	4.180
650.0	4.215
651.0	4.245
652.0	4.274
653.0	4.311
654.0	4.358
655.0	4.397
656.0	4.432
657.0	4.461
658.0	4.493
659.0	4.526
660.0	4.553
661.0	4.588
662.0	4.617
663.0	4.663
664.0	4.699
665.0	4.734
666.0	4.771
667.0	4.813
668.0	4.861
669.0	4.910
670.0	4.957
671.0	5.003
672.0	5.041
673.0	5.082
674.0	5.124
675.0	5.179
676.0	5.230
677.0	5.288
678.0	5.326
679.0	5.368
680.0	5.404
681.0	5.435
682.0	5.482
683.0	5.526
684.0	5.577
685.0	5.615
686.0	5.657
687.0	5.702
688.0	5.755
689.0	5.796
690.0	5.849
691.0	5.859
692.0	5.892
693.0	5.899
694.0	5.962
695.0	6.010
696.0	6.080
697.0	6.137
698.0	6.176
699.0	6.205
700.0	6.231
701.0	6.275
702.0	6.331
703.0	6.388
704.0	6.436
705.0	6.468
706.0	6.508
707.0	6.538
708.0	6.590
709.0	6.634
710.0	6.678
711.0	6.714
712.0	6.752
713.0	6.815
714.0	6.849
715.0	6.880
716.0	6.914
717.0	6.969
718.0	7.029
719.0	7.073
720.0	7.139
721.0	7.177
722.0	7.220
723.0	7.250
724.0	7.310
725.0	7.353
726.0	7.406
727.0	7.436
728.0	7.496
729.0	7.540
730.0	7.586
731.0	7.624
732.0	7.673
733.0	7.732
734.0	7.763
735.0	7.792
736.0	7.825
737.0	7.901
738.0	7.960
739.0	8.022
740.0	8.054
741.0	8.090
742.0	8.148
743.0	8.206
744.0	8.280
745.0	8.313
746.0	8.355
747.0	8.376
748.0	8.419
749.0	8.475
750.0	8.552
751.0	8.622
752.0	8.666
753.0	8.720
754.0	8.757
755.0	8.791
756.0	8.811
757.0	8.844
758.0	8.902
759.0	8.950
760.0	9.013
761.0	9.043
762.0	9.066
763.0	9.094
764.0	9.165
765.0	9.244
766.0	9.312
767.0	9.336
768.0	9.356
769.0	9.393
770.0	9.449
771.0	9.508
772.0	9.549
773.0	9.574
774.0	9.610
775.0	9.651
776.0	9.677
777.0	9.726
778.0	9.716
779.0	9.754
780.0	9.780
781.0	9.851
782.0	9.909
783.0	9.933
784.0	9.956
785.0	10.011
786.0	10.050
787.0	10.104
788.0	10.113
789.0	10.180
790.0	10.203
791.0	10.233
792.0	10.218
793.0	10.236
794.0	10.272
795.0	10.336
796.0	10.408
797.0	10.469
798.0	10.511
799.0	10.538
800.0	10.597
801.0	10.666
802.0	10.723
803.0	10.759
804.0	10.791
805.0	10.849
806.0	10.881
807.0	10.924
808.0	10.970
809.0	11.009
810.0	11.048
811.0	11.085
812.0	11.123
813.0	11.164
814.0	11.200
815.0	11.247
816.0	11.278
817.0	11.291
818.0	11.340
819.0	11.371
820.0	11.444
821.0	11.477
822.0	11.515
823.0	11.512
824.0	11.545
825.0	11.587
826.0	11.663
827.0	11.701
828.0	11.757
829.0	11.778
830.0	11.815
831.0	11.826
832.0	11.853
833.0	11.897
834.0	11.956
835.0	12.001
836.0	12.044
837.0	12.045
838.0	12.074
839.0	12.085
840.0	12.163
841.0	12.229
842.0	12.271
843.0	12.310
844.0	12.290
845.0	12.349
846.0	12.368
847.0	12.407
848.0	12.411
849.0	12.404
850.0	12.455
851.0	12.468
852.0	12.535
853.0	12.565
854.0	12.610
855.0	12.622
856.0	12.603
857.0	12.700
858.0	12.748
859.0	12.799
860.0	12.803
861.0	12.804
862.0	12.867
863.0	12.865
864.0	12.970
865.0	13.019
866.0	13.107
867.0	13.185
868.0	13.232
869.0	13.227
870.0	13.155
871.0	13.205
872.0	13.182
873.0	13.106
874.0	12.982
875.0	12.961
876.0	12.939
877.0	13.045
878.0	13.020
879.0	13.131
880.0	13.237
881.0	13.266
882.0	13.328
883.0	13.280
884.0	13.303
885.0	13.297
886.0	13.456
887.0	13.481
888.0	13.648
889.0	13.539
890.0	13.631
891.0	13.379
892.0	13.439
893.0	13.303
894.0	13.379
895.0	13.189
896.0	13.495
897.0	13.700
898.0	13.828
899.0	13.944
900.0	13.915
901.0	14.057
902.0	14.033
903.0	14.142
904.0	14.282
905.0	14.284
906.0	14.329
907.0	14.309
908.0	14.291
909.0	14.280
910.0	14.235
911.0	14.248
912.0	14.245
913.0	14.259
914.0	14.264
915.0	14.343
916.0	14.455
917.0	14.504
918.0	14.419
919.0	14.344
920.0	14.361
921.0	14.458
922.0	14.453
923.0	14.444
924.0	14.404
925.0	14.380
926.0	14.441
927.0	14.433
928.0	14.499
929.0	14.423
930.0	14.433
931.0	14.431
932.0	14.478
933.0	14.465
934.0	14.422
935.0	14.315
936.0	14.356
937.0	14.407
938.0	14.483
939.0	14.483
940.0	14.457
941.0	14.460
942.0	14.492
943.0	14.511
944.0	14.557
945.0	14.558
946.0	14.547
947.0	14.521
948.0	14.575
949.0	14.604
950.0	14.616
951.0	14.556
952.0	14.613
953.0	14.642
954.0	14.698
955.0	14.655
956.0	14.679
957.0	14.638
958.0	14.656
959.0	14.700
960.0	14.746
961.0	14.746
962.0	14.662
963.0	14.642
964.0	14.668
965.0	14.670
966.0	14.677
967.0	14.686
968.0	14.722
969.0	14.724
970.0	14.706
971.0	14.740
972.0	14.740
973.0	14.754
974.0	14.753
975.0	14.733
976.0	14.743
977.0	14.717
978.0	14.714
979.0	14.716
980.0	14.710
981.0	14.770
982.0	14.749
983.0	14.760
984.0	14.720
985.0	14.766
986.0	14.739
987.0	14.754
988.0	14.719
989.0	14.747
990.0	14.774
991.0	14.789
992.0	14.785
993.0	14.763
994.0	14.735
995.0	14.761
996.0	14.741
997.0	14.764
998.0	14.752
999.0	14.761
1000.0	14.780
1001.0	14.794
1002.0	14.782
1003.0	14.769
1004.0	14.765
1005.0	14.794
1006.0	14.765
1007.0	14.740
1008.0	14.708
1009.0	14.732
1010.0	14.740
1011.0	14.752
1012.0	14.745
1013.0	14.720
1014.0	14.724
1015.0	14.705
1016.0	14.722
1017.0	14.717
1018.0	14.713
1019.0	14.717
1020.0	14.695
1021.0	14.697
1022.0	14.672
1023.0	14.691
1024.0	14.698
1025.0	14.732
1026.0	14.721
1027.0	14.713
1028.0	14.680
1029.0	14.684
1030.0	14.679
1031.0	14.668
1032.0	14.641
1033.0	14.647
1034.0	14.657
1035.0	14.657
1036.0	14.648
1037.0	14.653
1038.0	14.673
1039.0	14.661
1040.0	14.644
1041.0	14.622
1042.0	14.604
1043.0	14.589
1044.0	14.590
1045.0	14.587
1046.0	14.600
1047.0	14.587
1048.0	14.616
1049.0	14.591
1050.0	14.556
1051.0	14.556
1052.0	14.562
1053.0	14.591
1054.0	14.551
1055.0	14.548
1056.0	14.516
1057.0	14.519
1058.0	14.489
1059.0	14.494
1060.0	14.481
1061.0	14.461
1062.0	14.463
1063.0	14.456
1064.0	14.479
1065.0	14.465
1066.0	14.443
1067.0	14.431
1068.0	14.426
1069.0	14.443
1070.0	14.453
1071.0	14.449
1072.0	14.418
1073.0	14.403
1074.0	14.381
1075.0	14.363
1076.0	14.351
1077.0	14.378
1078.0	14.396
1079.0	14.391
1080.0	14.351
1081.0	14.349
1082.0	14.334
1083.0	14.327
1084.0	14.304
1085.0	14.288
1086.0	14.284
1087.0	14.270
1088.0	14.270
1089.0	14.263
1090.0	14.257
1091.0	14.257
1092.0	14.242
1093.0	14.241
1094.0	14.212
1095.0	14.211
1096.0	14.192
1097.0	14.189
1098.0	14.174
1099.0	14.187
1100.0	14.163
1101.0	14.151
1102.0	14.131
1103.0	14.130
1104.0	14.133
1105.0	14.130
1106.0	14.131
1107.0	14.103
1108.0	14.087
1109.0	14.066
1110.0	14.051
1111.0	14.038
1112.0	14.054
1113.0	14.063
1114.0	14.056
1115.0	14.037
1116.0	14.028
1117.0	14.024
1118.0	14.006
1119.0	14.003
1120.0	14.005
1121.0	14.011
1122.0	14.008
1123.0	13.985
1124.0	13.993
1125.0	13.980
1126.0	13.991
1127.0	13.965
1128.0	13.973
1129.0	13.964
1130.0	13.946
1131.0	13.930
1132.0	13.919
1133.0	13.935
1134.0	13.937
1135.0	13.934
1136.0	13.938
1137.0	13.921
1138.0	13.932
1139.0	13.913
1140.0	13.928
1141.0	13.925
1142.0	13.937
1143.0	13.934
1144.0	13.934
1145.0	13.947
1146.0	13.942
1147.0	13.940
1148.0	13.920
1149.0	13.908
1150.0	13.918
1151.0	13.924
1152.0	13.931
1153.0	13.911
1154.0	13.920
1155.0	13.927
1156.0	13.941
1157.0	13.942
1158.0	13.939
1159.0	13.947
1160.0	13.939
1161.0	13.957
1162.0	13.945
1163.0	13.963
1164.0	13.959
1165.0	13.970
1166.0	13.953
1167.0	13.959
1168.0	13.972
1169.0	13.988
1170.0	13.999
1171.0	13.999
1172.0	13.997
1173.0	14.009
1174.0	14.015
1175.0	14.030
1176.0	14.031
1177.0	14.032
1178.0	14.039
1179.0	14.053
1180.0	14.057
1181.0	14.072
1182.0	14.075
1183.0	14.112
1184.0	14.118
1185.0	14.125
1186.0	14.130
1187.0	14.128
1188.0	14.155
1189.0	14.143
1190.0	14.167
1191.0	14.149
1192.0	14.160
1193.0	14.171
1194.0	14.191
1195.0	14.221
1196.0	14.242
1197.0	14.254
1198.0	14.270
1199.0	14.273
1200.0	14.301
1201.0	14.320
1202.0	14.351
1203.0	14.359
1204.0	14.367
1205.0	14.353
1206.0	14.377
1207.0	14.397
1208.0	14.433
1209.0	14.440
1210.0	14.460
1211.0	14.485
1212.0	14.515
1213.0	14.544
1214.0	14.567
1215.0	14.603
1216.0	14.621
1217.0	14.640
1218.0	14.657
1219.0	14.672
1220.0	14.681
1221.0	14.695
1222.0	14.709
1223.0	14.735
1224.0	14.758
1225.0	14.800
1226.0	14.835
1227.0	14.851
1228.0	14.873
1229.0	14.900
1230.0	14.943
1231.0	14.978
1232.0	15.008
1233.0	15.021
1234.0	15.037
1235.0	15.066
1236.0	15.107
1237.0	15.134
1238.0	15.157
1239.0	15.185
1240.0	15.211
1241.0	15.236
1242.0	15.261
1243.0	15.302
1244.0	15.334
1245.0	15.360
1246.0	15.391
1247.0	15.426
1248.0	15.469
1249.0	15.509
1250.0	15.539
1251.0	15.565
1252.0	15.584
1253.0	15.633
1254.0	15.666
1255.0	15.710
1256.0	15.718
1257.0	15.757
1258.0	15.800
1259.0	15.849
1260.0	15.884
1261.0	15.908
1262.0	15.944
1263.0	15.972
1264.0	16.006
1265.0	16.039
1266.0	16.056
1267.0	16.080
1268.0	16.102
1269.0	16.168
1270.0	16.214
1271.0	16.263
1272.0	16.269
1273.0	16.282
1274.0	16.305
1275.0	16.346
1276.0	16.381
1277.0	16.414
1278.0	16.467
1279.0	16.514
1280.0	16.542
1281.0	16.558
1282.0	16.571
1283.0	16.615
1284.0	16.650
1285.0	16.693
1286.0	16.725
1287.0	16.756
1288.0	16.795
1289.0	16.844
1290.0	16.895
1291.0	16.923
1292.0	16.949
1293.0	16.970
1294.0	17.026
1295.0	17.055
1296.0	17.111
1297.0	17.127
1298.0	17.184
1299.0	17.206
1300.0	17.271
1301.0	17.300
1302.0	17.348
1303.0	17.406
1304.0	17.479
1305.0	17.538
1306.0	17.571
1307.0	17.599
1308.0	17.653
1309.0	17.715
1310.0	17.754
1311.0	17.793
1312.0	17.820
1313.0	17.857
1314.0	17.891
1315.0	17.930
1316.0	17.993
1317.0	18.025
1318.0	18.082
1319.0	18.117
1320.0	18.175
1321.0	18.189
1322.0	18.223
1323.0	18.251
1324.0	18.301
1325.0	18.335
1326.0	18.400
1327.0	18.422
1328.0	18.456
1329.0	18.452
1330.0	18.521
1331.0	18.596
1332.0	18.677
1333.0	18.721
1334.0	18.744
1335.0	18.770
1336.0	18.811
1337.0	18.867
1338.0	18.890
1339.0	18.940
1340.0	18.967
1341.0	19.035
1342.0	19.055
1343.0	19.114
1344.0	19.157
1345.0	19.200
1346.0	19.219
1347.0	19.251
1348.0	19.279
1349.0	19.311
1350.0	19.345
1351.0	19.397
1352.0	19.448
1353.0	19.482
1354.0	19.505
1355.0	19.533
1356.0	19.586
1357.0	19.633
1358.0	19.655
1359.0	19.692
1360.0	19.717
1361.0	19.760
1362.0	19.768
1363.0	19.808
1364.0	19.859
1365.0	19.924
1366.0	19.973
1367.0	20.025
1368.0	20.077
1369.0	20.103
1370.0	20.126
1371.0	20.169
1372.0	20.236
1373.0	20.299
1374.0	20.385
1375.0	20.436
1376.0	20.491
1377.0	20.516
1378.0	20.568
1379.0	20.628
1380.0	20.655
1381.0	20.697
1382.0	20.729
1383.0	20.768
1384.0	20.847
1385.0	20.922
1386.0	20.981
1387.0	21.004
1388.0	21.038
1389.0	21.109
1390.0	21.191
1391.0	21.227
1392.0	21.258
1393.0	21.297
1394.0	21.356
1395.0	21.421
1396.0	21.473
1397.0	21.523
1398.0	21.576
1399.0	21.638
1400.0	21.726
1401.0	21.790
1402.0	21.839
1403.0	21.873
1404.0	21.949
1405.0	22.031
1406.0	22.134
1407.0	22.147
1408.0	22.175
1409.0	22.177
1410.0	22.264
1411.0	22.307
1412.0	22.407
1413.0	22.468
1414.0	22.511
1415.0	22.526
1416.0	22.530
1417.0	22.580
1418.0	22.633
1419.0	22.702
1420.0	22.752
1421.0	22.801
1422.0	22.828
1423.0	22.876
1424.0	22.917
1425.0	22.953
1426.0	22.986
1427.0	22.995
1428.0	23.048
1429.0	23.090
1430.0	23.165
1431.0	23.210
1432.0	23.253
1433.0	23.274
1434.0	23.345
1435.0	23.393
1436.0	23.437
1437.0	23.425
1438.0	23.424
1439.0	23.457
1440.0	23.516
1441.0	23.588
1442.0	23.598
1443.0	23.597
1444.0	23.597
1445.0	23.637
1446.0	23.673
1447.0	23.733
1448.0	23.773
1449.0	23.815
1450.0	23.846
1451.0	23.901
1452.0	23.944
1453.0	23.945
1454.0	23.950
1455.0	23.909
1456.0	23.951
1457.0	23.947
1458.0	24.052
1459.0	24.073
1460.0	24.127
1461.0	24.116
1462.0	24.154
1463.0	24.212
1464.0	24.232
1465.0	24.232
1466.0	24.214
1467.0	24.248
1468.0	24.301
1469.0	24.338
1470.0	24.365
1471.0	24.347
1472.0	24.342
1473.0	24.350
1474.0	24.390
1475.0	24.420
1476.0	24.456
1477.0	24.470
1478.0	24.494
1479.0	24.495
1480.0	24.537
1481.0	24.564
1482.0	24.588
1483.0	24.600
1484.0	24.595
1485.0	24.589
1486.0	24.609
1487.0	24.639
1488.0	24.660
1489.0	24.645
1490.0	24.648
1491.0	24.670
1492.0	24.684
1493.0	24.711
1494.0	24.727
1495.0	24.775
1496.0	24.778
1497.0	24.788
1498.0	24.779
1499.0	24.791
1500.0	24.831
1501.0	24.861
1502.0	24.899
1503.0	24.909
1504.0	24.912
1505.0	24.917
1506.0	24.945
1507.0	24.975
1508.0	24.990
1509.0	24.999
1510.0	24.964
1511.0	24.956
1512.0	24.993
1513.0	25.021
1514.0	25.076
1515.0	25.050
1516.0	25.083
1517.0	25.077
1518.0	25.135
1519.0	25.161
1520.0	25.227
1521.0	25.224
1522.0	25.247
1523.0	25.242
1524.0	25.216
1525.0	25.230
1526.0	25.227
1527.0	25.276
1528.0	25.267
1529.0	25.281
1530.0	25.281
1531.0	25.323
1532.0	25.308
1533.0	25.343
1534.0	25.333
1535.0	25.389
1536.0	25.406
1537.0	25.423
1538.0	25.460
1539.0	25.446
1540.0	25.496
1541.0	25.499
1542.0	25.526
1543.0	25.496
1544.0	25.500
1545.0	25.558
1546.0	25.586
1547.0	25.595
1548.0	25.596
1549.0	25.606
1550.0	25.634
1551.0	25.653
1552.0	25.670
1553.0	25.662
1554.0	25.632
1555.0	25.659
1556.0	25.701
1557.0	25.752
1558.0	25.754
1559.0	25.771
1560.0	25.797
1561.0	25.857
1562.0	25.875
1563.0	25.874
1564.0	25.850
1565.0	25.828
1566.0	25.843
1567.0	25.884
1568.0	25.969
1569.0	26.004
1570.0	26.015
1571.0	26.023
1572.0	26.002
1573.0	26.025
1574.0	26.030
1575.0	26.100
1576.0	26.103
1577.0	26.111
1578.0	26.084
1579.0	26.114
1580.0	26.098
1581.0	26.159
1582.0	26.141
1583.0	26.163
1584.0	26.127
1585.0	26.155
1586.0	26.180
1587.0	26.212
1588.0	26.242
1589.0	26.260
1590.0	26.290
1591.0	26.321
1592.0	26.340
1593.0	26.357
1594.0	26.365
1595.0	26.372
1596.0	26.384
1597.0	26.409
1598.0	26.453
1599.0	26.512
1600.0	26.560
