[SUMMARY]
Software Information
Software Name:	UVProbe
Version:	2.43
Mode:	Normal Mode

Data Information
Data is:	Original
Analyst:	
Date/Time:	23/02/2023 19:17:41
Comments:	

Instrument Information
Instrument Name:	SolidSpec3700
Instrument Type:	SolidSpec-3700 Series
Model (S/N):	SolidSpec3700 ( A11085100264CZ )

[METHOD]
[Measurement Properties]
Wavelength Range (nm.):	285,00 to 1600,00
Scan Speed:	Medium
Sampling Interval:	1,0
Auto Sampling Interval:	Disabled
Scan Mode:	Single

[Sample Preparation Properties]
Weight:	
Volume:	
Dilution:	
Path Length:	
Additional Information:	

[Instrument Properties]
Instrument Type:	SolidSpec-3700 Series
Measuring Mode:	Reflectance
Slit Width:	5,0 nm
Time Constant:	1,0 sec.
Source Lamp:	Auto
Light Source Change Wavelength:	282,00 nm
Detector Unit:	Integral Sphere
Detector Change Wavelength:	900,00 nm  1650,00 nm
Grating Change Wavelength:	800,00 nm
S/R Exchange:	Inverse
Detector Lock:	Auto
Slit Program:	Fixed
Beam Mode:	Double
Stair Correction:	Disable

[Attachment Properties]
Attachment:	X-Y Stage
Sequence File:	Positions.xys

[Operation]
Threshold:	0,0010000
Points:	4
InterPolate:	Disabled
Average:	Disabled

[DATA]
Wavelength	Data
285.0	4.586
286.0	4.641
287.0	4.645
288.0	4.732
289.0	4.778
290.0	4.901
291.0	4.887
292.0	4.929
293.0	4.977
294.0	5.098
295.0	5.158
296.0	5.191
297.0	5.163
298.0	5.179
299.0	5.204
300.0	5.233
301.0	5.278
302.0	5.272
303.0	5.313
304.0	5.313
305.0	5.353
306.0	5.355
307.0	5.359
308.0	5.355
309.0	5.398
310.0	5.416
311.0	5.446
312.0	5.398
313.0	5.362
314.0	5.348
315.0	5.338
316.0	5.347
317.0	5.332
318.0	5.320
319.0	5.316
320.0	5.299
321.0	5.286
322.0	5.293
323.0	5.256
324.0	5.265
325.0	5.246
326.0	5.236
327.0	5.189
328.0	5.154
329.0	5.154
330.0	5.159
331.0	5.135
332.0	5.125
333.0	5.101
334.0	5.109
335.0	5.076
336.0	5.108
337.0	5.101
338.0	5.101
339.0	5.053
340.0	5.028
341.0	5.029
342.0	5.013
343.0	4.989
344.0	4.972
345.0	4.975
346.0	4.971
347.0	4.953
348.0	4.933
349.0	4.931
350.0	4.910
351.0	4.871
352.0	4.838
353.0	4.817
354.0	4.815
355.0	4.779
356.0	4.750
357.0	4.710
358.0	4.704
359.0	4.685
360.0	4.684
361.0	4.666
362.0	4.661
363.0	4.641
364.0	4.629
365.0	4.605
366.0	4.587
367.0	4.558
368.0	4.553
369.0	4.543
370.0	4.529
371.0	4.530
372.0	4.512
373.0	4.524
374.0	4.522
375.0	4.550
376.0	4.554
377.0	4.563
378.0	4.560
379.0	4.592
380.0	4.616
381.0	4.650
382.0	4.661
383.0	4.663
384.0	4.672
385.0	4.685
386.0	4.697
387.0	4.720
388.0	4.731
389.0	4.762
390.0	4.762
391.0	4.771
392.0	4.784
393.0	4.796
394.0	4.806
395.0	4.790
396.0	4.792
397.0	4.790
398.0	4.796
399.0	4.800
400.0	4.800
401.0	4.788
402.0	4.789
403.0	4.793
404.0	4.801
405.0	4.784
406.0	4.761
407.0	4.748
408.0	4.741
409.0	4.744
410.0	4.733
411.0	4.729
412.0	4.718
413.0	4.714
414.0	4.703
415.0	4.693
416.0	4.678
417.0	4.671
418.0	4.663
419.0	4.652
420.0	4.626
421.0	4.604
422.0	4.584
423.0	4.573
424.0	4.557
425.0	4.541
426.0	4.520
427.0	4.492
428.0	4.467
429.0	4.437
430.0	4.418
431.0	4.388
432.0	4.358
433.0	4.331
434.0	4.316
435.0	4.296
436.0	4.270
437.0	4.243
438.0	4.217
439.0	4.194
440.0	4.174
441.0	4.160
442.0	4.143
443.0	4.130
444.0	4.115
445.0	4.099
446.0	4.090
447.0	4.080
448.0	4.079
449.0	4.064
450.0	4.067
451.0	4.057
452.0	4.059
453.0	4.051
454.0	4.054
455.0	4.057
456.0	4.060
457.0	4.055
458.0	4.056
459.0	4.065
460.0	4.084
461.0	4.089
462.0	4.086
463.0	4.085
464.0	4.088
465.0	4.101
466.0	4.109
467.0	4.117
468.0	4.120
469.0	4.130
470.0	4.137
471.0	4.142
472.0	4.149
473.0	4.155
474.0	4.171
475.0	4.183
476.0	4.204
477.0	4.210
478.0	4.220
479.0	4.230
480.0	4.237
481.0	4.242
482.0	4.241
483.0	4.249
484.0	4.256
485.0	4.266
486.0	4.279
487.0	4.284
488.0	4.293
489.0	4.296
490.0	4.300
491.0	4.297
492.0	4.304
493.0	4.310
494.0	4.323
495.0	4.329
496.0	4.329
497.0	4.328
498.0	4.332
499.0	4.341
500.0	4.343
501.0	4.348
502.0	4.351
503.0	4.355
504.0	4.354
505.0	4.358
506.0	4.360
507.0	4.364
508.0	4.366
509.0	4.375
510.0	4.379
511.0	4.389
512.0	4.384
513.0	4.380
514.0	4.374
515.0	4.376
516.0	4.374
517.0	4.382
518.0	4.382
519.0	4.381
520.0	4.369
521.0	4.365
522.0	4.362
523.0	4.352
524.0	4.343
525.0	4.333
526.0	4.331
527.0	4.315
528.0	4.313
529.0	4.302
530.0	4.299
531.0	4.282
532.0	4.274
533.0	4.268
534.0	4.264
535.0	4.249
536.0	4.236
537.0	4.224
538.0	4.207
539.0	4.194
540.0	4.181
541.0	4.169
542.0	4.150
543.0	4.124
544.0	4.098
545.0	4.078
546.0	4.063
547.0	4.045
548.0	4.024
549.0	3.999
550.0	3.980
551.0	3.955
552.0	3.932
553.0	3.908
554.0	3.889
555.0	3.868
556.0	3.845
557.0	3.819
558.0	3.784
559.0	3.755
560.0	3.723
561.0	3.702
562.0	3.677
563.0	3.655
564.0	3.624
565.0	3.591
566.0	3.563
567.0	3.536
568.0	3.517
569.0	3.490
570.0	3.465
571.0	3.437
572.0	3.412
573.0	3.383
574.0	3.354
575.0	3.330
576.0	3.307
577.0	3.284
578.0	3.256
579.0	3.229
580.0	3.204
581.0	3.179
582.0	3.161
583.0	3.147
584.0	3.129
585.0	3.109
586.0	3.082
587.0	3.067
588.0	3.043
589.0	3.024
590.0	3.002
591.0	2.988
592.0	2.968
593.0	2.949
594.0	2.933
595.0	2.915
596.0	2.907
597.0	2.892
598.0	2.882
599.0	2.865
600.0	2.847
601.0	2.833
602.0	2.819
603.0	2.812
604.0	2.808
605.0	2.802
606.0	2.787
607.0	2.776
608.0	2.776
609.0	2.780
610.0	2.774
611.0	2.767
612.0	2.757
613.0	2.755
614.0	2.751
615.0	2.756
616.0	2.758
617.0	2.753
618.0	2.749
619.0	2.745
620.0	2.752
621.0	2.755
622.0	2.763
623.0	2.762
624.0	2.765
625.0	2.769
626.0	2.772
627.0	2.788
628.0	2.798
629.0	2.817
630.0	2.818
631.0	2.828
632.0	2.838
633.0	2.851
634.0	2.854
635.0	2.867
636.0	2.886
637.0	2.907
638.0	2.920
639.0	2.933
640.0	2.946
641.0	2.956
642.0	2.968
643.0	2.982
644.0	3.002
645.0	3.023
646.0	3.049
647.0	3.072
648.0	3.089
649.0	3.112
650.0	3.136
651.0	3.155
652.0	3.178
653.0	3.200
654.0	3.222
655.0	3.241
656.0	3.260
657.0	3.290
658.0	3.310
659.0	3.326
660.0	3.340
661.0	3.363
662.0	3.390
663.0	3.424
664.0	3.450
665.0	3.480
666.0	3.503
667.0	3.532
668.0	3.559
669.0	3.593
670.0	3.625
671.0	3.656
672.0	3.682
673.0	3.716
674.0	3.768
675.0	3.812
676.0	3.847
677.0	3.871
678.0	3.896
679.0	3.927
680.0	3.958
681.0	3.993
682.0	4.015
683.0	4.038
684.0	4.066
685.0	4.108
686.0	4.136
687.0	4.158
688.0	4.192
689.0	4.215
690.0	4.252
691.0	4.281
692.0	4.322
693.0	4.354
694.0	4.385
695.0	4.422
696.0	4.453
697.0	4.487
698.0	4.504
699.0	4.536
700.0	4.554
701.0	4.589
702.0	4.624
703.0	4.667
704.0	4.708
705.0	4.732
706.0	4.765
707.0	4.793
708.0	4.830
709.0	4.851
710.0	4.885
711.0	4.911
712.0	4.935
713.0	4.966
714.0	4.998
715.0	5.045
716.0	5.071
717.0	5.109
718.0	5.129
719.0	5.156
720.0	5.198
721.0	5.230
722.0	5.271
723.0	5.289
724.0	5.332
725.0	5.361
726.0	5.393
727.0	5.432
728.0	5.464
729.0	5.513
730.0	5.539
731.0	5.584
732.0	5.617
733.0	5.649
734.0	5.695
735.0	5.728
736.0	5.787
737.0	5.791
738.0	5.821
739.0	5.828
740.0	5.905
741.0	5.946
742.0	6.020
743.0	6.044
744.0	6.079
745.0	6.112
746.0	6.162
747.0	6.205
748.0	6.228
749.0	6.262
750.0	6.303
751.0	6.333
752.0	6.367
753.0	6.402
754.0	6.451
755.0	6.473
756.0	6.513
757.0	6.553
758.0	6.605
759.0	6.635
760.0	6.683
761.0	6.722
762.0	6.755
763.0	6.789
764.0	6.803
765.0	6.869
766.0	6.916
767.0	6.980
768.0	6.998
769.0	7.006
770.0	7.013
771.0	7.030
772.0	7.069
773.0	7.119
774.0	7.162
775.0	7.203
776.0	7.261
777.0	7.275
778.0	7.322
779.0	7.326
780.0	7.365
781.0	7.385
782.0	7.418
783.0	7.463
784.0	7.481
785.0	7.498
786.0	7.524
787.0	7.555
788.0	7.600
789.0	7.630
790.0	7.663
791.0	7.695
792.0	7.713
793.0	7.741
794.0	7.796
795.0	7.859
796.0	7.910
797.0	7.920
798.0	7.956
799.0	7.980
800.0	7.996
801.0	7.996
802.0	8.006
803.0	8.041
804.0	8.090
805.0	8.121
806.0	8.160
807.0	8.182
808.0	8.224
809.0	8.265
810.0	8.302
811.0	8.344
812.0	8.361
813.0	8.397
814.0	8.426
815.0	8.470
816.0	8.490
817.0	8.512
818.0	8.532
819.0	8.570
820.0	8.604
821.0	8.642
822.0	8.680
823.0	8.727
824.0	8.760
825.0	8.798
826.0	8.831
827.0	8.861
828.0	8.904
829.0	8.945
830.0	8.991
831.0	9.016
832.0	9.045
833.0	9.068
834.0	9.099
835.0	9.149
836.0	9.199
837.0	9.249
838.0	9.269
839.0	9.284
840.0	9.289
841.0	9.323
842.0	9.345
843.0	9.406
844.0	9.437
845.0	9.487
846.0	9.488
847.0	9.532
848.0	9.581
849.0	9.615
850.0	9.617
851.0	9.626
852.0	9.666
853.0	9.734
854.0	9.770
855.0	9.764
856.0	9.753
857.0	9.783
858.0	9.857
859.0	9.840
860.0	9.866
861.0	9.874
862.0	9.926
863.0	9.940
864.0	9.966
865.0	9.999
866.0	9.997
867.0	10.022
868.0	10.044
869.0	10.072
870.0	10.065
871.0	10.100
872.0	10.253
873.0	10.381
874.0	10.456
875.0	10.337
876.0	10.247
877.0	10.172
878.0	10.296
879.0	10.490
880.0	10.616
881.0	10.685
882.0	10.595
883.0	10.515
884.0	10.462
885.0	10.502
886.0	10.523
887.0	10.389
888.0	10.396
889.0	10.526
890.0	10.487
891.0	10.672
892.0	10.315
893.0	10.341
894.0	10.253
895.0	10.352
896.0	10.545
897.0	10.347
898.0	10.726
899.0	10.691
900.0	11.019
901.0	10.872
902.0	11.023
903.0	11.031
904.0	11.263
905.0	11.365
906.0	11.281
907.0	11.328
908.0	11.245
909.0	11.214
910.0	11.218
911.0	11.297
912.0	11.396
913.0	11.264
914.0	11.271
915.0	11.203
916.0	11.266
917.0	11.265
918.0	11.319
919.0	11.423
920.0	11.417
921.0	11.440
922.0	11.363
923.0	11.418
924.0	11.545
925.0	11.592
926.0	11.619
927.0	11.606
928.0	11.576
929.0	11.544
930.0	11.502
931.0	11.522
932.0	11.526
933.0	11.514
934.0	11.538
935.0	11.552
936.0	11.571
937.0	11.589
938.0	11.610
939.0	11.696
940.0	11.689
941.0	11.696
942.0	11.670
943.0	11.693
944.0	11.726
945.0	11.713
946.0	11.733
947.0	11.732
948.0	11.722
949.0	11.673
950.0	11.679
951.0	11.740
952.0	11.810
953.0	11.759
954.0	11.751
955.0	11.731
956.0	11.784
957.0	11.746
958.0	11.724
959.0	11.740
960.0	11.814
961.0	11.839
962.0	11.835
963.0	11.798
964.0	11.823
965.0	11.885
966.0	11.900
967.0	11.911
968.0	11.879
969.0	11.911
970.0	11.923
971.0	11.944
972.0	11.931
973.0	11.941
974.0	11.961
975.0	12.007
976.0	12.013
977.0	11.987
978.0	11.978
979.0	11.970
980.0	12.020
981.0	12.052
982.0	12.077
983.0	12.104
984.0	12.094
985.0	12.118
986.0	12.115
987.0	12.129
988.0	12.109
989.0	12.061
990.0	12.053
991.0	12.061
992.0	12.104
993.0	12.115
994.0	12.172
995.0	12.176
996.0	12.218
997.0	12.190
998.0	12.202
999.0	12.189
1000.0	12.198
1001.0	12.220
1002.0	12.227
1003.0	12.237
1004.0	12.243
1005.0	12.253
1006.0	12.297
1007.0	12.294
1008.0	12.273
1009.0	12.286
1010.0	12.310
1011.0	12.339
1012.0	12.340
1013.0	12.314
1014.0	12.331
1015.0	12.313
1016.0	12.330
1017.0	12.331
1018.0	12.361
1019.0	12.374
1020.0	12.386
1021.0	12.380
1022.0	12.410
1023.0	12.419
1024.0	12.433
1025.0	12.420
1026.0	12.415
1027.0	12.407
1028.0	12.412
1029.0	12.416
1030.0	12.432
1031.0	12.439
1032.0	12.468
1033.0	12.462
1034.0	12.481
1035.0	12.492
1036.0	12.501
1037.0	12.529
1038.0	12.511
1039.0	12.525
1040.0	12.499
1041.0	12.521
1042.0	12.510
1043.0	12.515
1044.0	12.517
1045.0	12.546
1046.0	12.535
1047.0	12.533
1048.0	12.563
1049.0	12.599
1050.0	12.642
1051.0	12.621
1052.0	12.625
1053.0	12.609
1054.0	12.638
1055.0	12.647
1056.0	12.677
1057.0	12.668
1058.0	12.682
1059.0	12.680
1060.0	12.684
1061.0	12.694
1062.0	12.679
1063.0	12.702
1064.0	12.704
1065.0	12.748
1066.0	12.739
1067.0	12.759
1068.0	12.744
1069.0	12.767
1070.0	12.761
1071.0	12.782
1072.0	12.795
1073.0	12.817
1074.0	12.801
1075.0	12.802
1076.0	12.796
1077.0	12.825
1078.0	12.852
1079.0	12.882
1080.0	12.881
1081.0	12.886
1082.0	12.876
1083.0	12.890
1084.0	12.886
1085.0	12.894
1086.0	12.901
1087.0	12.916
1088.0	12.932
1089.0	12.950
1090.0	12.949
1091.0	12.960
1092.0	12.967
1093.0	12.982
1094.0	12.985
1095.0	12.988
1096.0	12.983
1097.0	12.995
1098.0	13.020
1099.0	13.044
1100.0	13.041
1101.0	13.031
1102.0	13.047
1103.0	13.076
1104.0	13.084
1105.0	13.082
1106.0	13.103
1107.0	13.130
1108.0	13.139
1109.0	13.126
1110.0	13.137
1111.0	13.146
1112.0	13.184
1113.0	13.194
1114.0	13.201
1115.0	13.190
1116.0	13.200
1117.0	13.231
1118.0	13.268
1119.0	13.267
1120.0	13.290
1121.0	13.290
1122.0	13.310
1123.0	13.296
1124.0	13.301
1125.0	13.320
1126.0	13.347
1127.0	13.353
1128.0	13.353
1129.0	13.368
1130.0	13.388
1131.0	13.399
1132.0	13.413
1133.0	13.451
1134.0	13.495
1135.0	13.496
1136.0	13.502
1137.0	13.497
1138.0	13.543
1139.0	13.565
1140.0	13.578
1141.0	13.566
1142.0	13.562
1143.0	13.585
1144.0	13.638
1145.0	13.664
1146.0	13.686
1147.0	13.685
1148.0	13.721
1149.0	13.753
1150.0	13.771
1151.0	13.781
1152.0	13.784
1153.0	13.805
1154.0	13.822
1155.0	13.847
1156.0	13.883
1157.0	13.903
1158.0	13.927
1159.0	13.922
1160.0	13.949
1161.0	13.966
1162.0	14.011
1163.0	14.036
1164.0	14.064
1165.0	14.074
1166.0	14.086
1167.0	14.112
1168.0	14.131
1169.0	14.152
1170.0	14.160
1171.0	14.184
1172.0	14.203
1173.0	14.232
1174.0	14.253
1175.0	14.290
1176.0	14.310
1177.0	14.317
1178.0	14.343
1179.0	14.364
1180.0	14.405
1181.0	14.431
1182.0	14.453
1183.0	14.479
1184.0	14.499
1185.0	14.558
1186.0	14.581
1187.0	14.612
1188.0	14.615
1189.0	14.645
1190.0	14.647
1191.0	14.696
1192.0	14.731
1193.0	14.794
1194.0	14.811
1195.0	14.842
1196.0	14.859
1197.0	14.886
1198.0	14.892
1199.0	14.940
1200.0	14.955
1201.0	15.008
1202.0	15.024
1203.0	15.060
1204.0	15.089
1205.0	15.114
1206.0	15.148
1207.0	15.182
1208.0	15.212
1209.0	15.255
1210.0	15.284
1211.0	15.309
1212.0	15.343
1213.0	15.374
1214.0	15.416
1215.0	15.438
1216.0	15.464
1217.0	15.499
1218.0	15.539
1219.0	15.593
1220.0	15.626
1221.0	15.667
1222.0	15.681
1223.0	15.725
1224.0	15.740
1225.0	15.778
1226.0	15.788
1227.0	15.827
1228.0	15.862
1229.0	15.918
1230.0	15.954
1231.0	16.010
1232.0	16.043
1233.0	16.090
1234.0	16.118
1235.0	16.166
1236.0	16.218
1237.0	16.245
1238.0	16.273
1239.0	16.286
1240.0	16.328
1241.0	16.365
1242.0	16.415
1243.0	16.446
1244.0	16.480
1245.0	16.521
1246.0	16.572
1247.0	16.611
1248.0	16.624
1249.0	16.668
1250.0	16.705
1251.0	16.731
1252.0	16.755
1253.0	16.790
1254.0	16.864
1255.0	16.907
1256.0	16.938
1257.0	16.961
1258.0	17.002
1259.0	17.045
1260.0	17.110
1261.0	17.163
1262.0	17.194
1263.0	17.206
1264.0	17.227
1265.0	17.277
1266.0	17.294
1267.0	17.321
1268.0	17.355
1269.0	17.398
1270.0	17.441
1271.0	17.477
1272.0	17.531
1273.0	17.569
1274.0	17.605
1275.0	17.627
1276.0	17.663
1277.0	17.713
1278.0	17.768
1279.0	17.806
1280.0	17.840
1281.0	17.865
1282.0	17.907
1283.0	17.924
1284.0	17.975
1285.0	18.007
1286.0	18.053
1287.0	18.063
1288.0	18.085
1289.0	18.105
1290.0	18.156
1291.0	18.204
1292.0	18.248
1293.0	18.282
1294.0	18.319
1295.0	18.380
1296.0	18.426
1297.0	18.457
1298.0	18.492
1299.0	18.518
1300.0	18.570
1301.0	18.600
1302.0	18.661
1303.0	18.715
1304.0	18.757
1305.0	18.804
1306.0	18.845
1307.0	18.899
1308.0	18.950
1309.0	18.976
1310.0	19.040
1311.0	19.087
1312.0	19.121
1313.0	19.138
1314.0	19.147
1315.0	19.211
1316.0	19.270
1317.0	19.321
1318.0	19.357
1319.0	19.370
1320.0	19.414
1321.0	19.454
1322.0	19.490
1323.0	19.536
1324.0	19.571
1325.0	19.629
1326.0	19.659
1327.0	19.690
1328.0	19.716
1329.0	19.747
1330.0	19.785
1331.0	19.852
1332.0	19.920
1333.0	19.973
1334.0	20.012
1335.0	20.058
1336.0	20.096
1337.0	20.116
1338.0	20.143
1339.0	20.193
1340.0	20.250
1341.0	20.293
1342.0	20.313
1343.0	20.353
1344.0	20.359
1345.0	20.415
1346.0	20.466
1347.0	20.525
1348.0	20.557
1349.0	20.544
1350.0	20.567
1351.0	20.608
1352.0	20.674
1353.0	20.693
1354.0	20.705
1355.0	20.731
1356.0	20.837
1357.0	20.879
1358.0	20.905
1359.0	20.904
1360.0	20.932
1361.0	20.956
1362.0	20.968
1363.0	20.987
1364.0	21.006
1365.0	21.060
1366.0	21.126
1367.0	21.186
1368.0	21.235
1369.0	21.290
1370.0	21.379
1371.0	21.414
1372.0	21.452
1373.0	21.481
1374.0	21.525
1375.0	21.550
1376.0	21.586
1377.0	21.639
1378.0	21.721
1379.0	21.767
1380.0	21.816
1381.0	21.858
1382.0	21.912
1383.0	21.960
1384.0	22.022
1385.0	22.088
1386.0	22.154
1387.0	22.203
1388.0	22.235
1389.0	22.244
1390.0	22.269
1391.0	22.339
1392.0	22.394
1393.0	22.426
1394.0	22.457
1395.0	22.535
1396.0	22.601
1397.0	22.661
1398.0	22.721
1399.0	22.798
1400.0	22.841
1401.0	22.884
1402.0	22.924
1403.0	22.975
1404.0	23.017
1405.0	23.070
1406.0	23.158
1407.0	23.220
1408.0	23.270
1409.0	23.291
1410.0	23.369
1411.0	23.406
1412.0	23.454
1413.0	23.470
1414.0	23.551
1415.0	23.601
1416.0	23.641
1417.0	23.666
1418.0	23.744
1419.0	23.810
1420.0	23.866
1421.0	23.882
1422.0	23.899
1423.0	23.911
1424.0	23.964
1425.0	24.022
1426.0	24.071
1427.0	24.105
1428.0	24.139
1429.0	24.174
1430.0	24.208
1431.0	24.251
1432.0	24.262
1433.0	24.279
1434.0	24.295
1435.0	24.355
1436.0	24.402
1437.0	24.442
1438.0	24.444
1439.0	24.475
1440.0	24.542
1441.0	24.632
1442.0	24.663
1443.0	24.680
1444.0	24.672
1445.0	24.683
1446.0	24.689
1447.0	24.720
1448.0	24.742
1449.0	24.792
1450.0	24.833
1451.0	24.849
1452.0	24.858
1453.0	24.894
1454.0	24.929
1455.0	24.959
1456.0	24.959
1457.0	25.014
1458.0	25.037
1459.0	25.067
1460.0	25.102
1461.0	25.111
1462.0	25.141
1463.0	25.119
1464.0	25.140
1465.0	25.172
1466.0	25.206
1467.0	25.247
1468.0	25.250
1469.0	25.286
1470.0	25.263
1471.0	25.281
1472.0	25.267
1473.0	25.291
1474.0	25.300
1475.0	25.355
1476.0	25.343
1477.0	25.368
1478.0	25.335
1479.0	25.402
1480.0	25.422
1481.0	25.455
1482.0	25.458
1483.0	25.484
1484.0	25.512
1485.0	25.534
1486.0	25.554
1487.0	25.571
1488.0	25.587
1489.0	25.609
1490.0	25.602
1491.0	25.623
1492.0	25.612
1493.0	25.638
1494.0	25.660
1495.0	25.688
1496.0	25.706
1497.0	25.691
1498.0	25.671
1499.0	25.698
1500.0	25.722
1501.0	25.734
1502.0	25.709
1503.0	25.726
1504.0	25.741
1505.0	25.772
1506.0	25.812
1507.0	25.827
1508.0	25.841
1509.0	25.790
1510.0	25.781
1511.0	25.797
1512.0	25.828
1513.0	25.855
1514.0	25.871
1515.0	25.897
1516.0	25.919
1517.0	25.927
1518.0	25.945
1519.0	25.941
1520.0	25.951
1521.0	25.957
1522.0	25.993
1523.0	25.963
1524.0	25.956
1525.0	25.947
1526.0	25.987
1527.0	26.002
1528.0	26.017
1529.0	26.022
1530.0	26.055
1531.0	26.085
1532.0	26.147
1533.0	26.161
1534.0	26.177
1535.0	26.146
1536.0	26.150
1537.0	26.166
1538.0	26.209
1539.0	26.217
1540.0	26.222
1541.0	26.236
1542.0	26.256
1543.0	26.278
1544.0	26.315
1545.0	26.349
1546.0	26.420
1547.0	26.411
1548.0	26.455
1549.0	26.381
1550.0	26.379
1551.0	26.347
1552.0	26.388
1553.0	26.430
1554.0	26.442
1555.0	26.485
1556.0	26.494
1557.0	26.548
1558.0	26.540
1559.0	26.545
1560.0	26.535
1561.0	26.562
1562.0	26.547
1563.0	26.556
1564.0	26.563
1565.0	26.646
1566.0	26.696
1567.0	26.748
1568.0	26.765
1569.0	26.743
1570.0	26.719
1571.0	26.675
1572.0	26.694
1573.0	26.714
1574.0	26.754
1575.0	26.781
1576.0	26.829
1577.0	26.866
1578.0	26.847
1579.0	26.893
1580.0	26.915
1581.0	26.955
1582.0	26.941
1583.0	26.951
1584.0	26.993
1585.0	26.986
1586.0	26.979
1587.0	26.963
1588.0	26.980
1589.0	26.994
1590.0	27.045
1591.0	27.038
1592.0	27.005
1593.0	26.995
1594.0	27.070
1595.0	27.121
1596.0	27.123
1597.0	27.100
1598.0	27.137
1599.0	27.192
1600.0	27.227
