[SUMMARY]
Software Information
Software Name:	UVProbe
Version:	2.43
Mode:	Normal Mode

Data Information
Data is:	Original
Analyst:	
Date/Time:	23/02/2023 17:58:36
Comments:	

Instrument Information
Instrument Name:	SolidSpec3700
Instrument Type:	SolidSpec-3700 Series
Model (S/N):	SolidSpec3700 ( A11085100264CZ )

[METHOD]
[Measurement Properties]
Wavelength Range (nm.):	285,00 to 1600,00
Scan Speed:	Medium
Sampling Interval:	1,0
Auto Sampling Interval:	Disabled
Scan Mode:	Single

[Sample Preparation Properties]
Weight:	
Volume:	
Dilution:	
Path Length:	
Additional Information:	

[Instrument Properties]
Instrument Type:	SolidSpec-3700 Series
Measuring Mode:	Transmittance
Slit Width:	5,0 nm
Time Constant:	1,0 sec.
Source Lamp:	Auto
Light Source Change Wavelength:	282,00 nm
Detector Unit:	Integral Sphere
Detector Change Wavelength:	900,00 nm  1650,00 nm
Grating Change Wavelength:	800,00 nm
S/R Exchange:	Normal
Detector Lock:	Auto
Slit Program:	Fixed
Beam Mode:	Double
Stair Correction:	Disable

[Attachment Properties]
Attachment:	X-Y Stage
Sequence File:	Positions.xys

[Operation]
Threshold:	0,0010000
Points:	4
InterPolate:	Disabled
Average:	Disabled

[DATA]
Wavelength	Data
285.0	80.018
286.0	80.153
287.0	80.393
288.0	80.447
289.0	80.520
290.0	80.463
291.0	80.489
292.0	80.578
293.0	80.606
294.0	80.507
295.0	80.551
296.0	80.658
297.0	80.896
298.0	81.049
299.0	81.103
300.0	81.213
301.0	81.039
302.0	81.000
303.0	80.687
304.0	80.768
305.0	80.985
306.0	81.298
307.0	81.249
308.0	81.087
309.0	80.921
310.0	80.876
311.0	81.108
312.0	81.257
313.0	81.529
314.0	81.331
315.0	81.364
316.0	81.297
317.0	81.330
318.0	81.210
319.0	81.263
320.0	81.328
321.0	81.378
322.0	81.393
323.0	81.404
324.0	81.422
325.0	81.292
326.0	81.275
327.0	81.271
328.0	81.473
329.0	81.701
330.0	81.813
331.0	81.779
332.0	81.504
333.0	81.461
334.0	81.485
335.0	81.576
336.0	81.607
337.0	81.553
338.0	81.589
339.0	81.561
340.0	81.548
341.0	81.631
342.0	81.740
343.0	81.827
344.0	81.810
345.0	81.808
346.0	81.890
347.0	81.941
348.0	82.043
349.0	82.085
350.0	82.105
351.0	81.957
352.0	81.900
353.0	81.899
354.0	82.053
355.0	82.099
356.0	82.164
357.0	82.137
358.0	82.171
359.0	82.179
360.0	82.214
361.0	82.125
362.0	82.101
363.0	82.041
364.0	82.144
365.0	82.137
366.0	82.195
367.0	82.208
368.0	82.173
369.0	82.111
370.0	82.061
371.0	82.006
372.0	82.007
373.0	81.932
374.0	81.969
375.0	82.021
376.0	82.045
377.0	82.105
378.0	82.037
379.0	81.943
380.0	81.899
381.0	81.683
382.0	81.686
383.0	81.621
384.0	81.701
385.0	81.722
386.0	81.623
387.0	81.619
388.0	81.541
389.0	81.557
390.0	81.513
391.0	81.496
392.0	81.564
393.0	81.561
394.0	81.499
395.0	81.328
396.0	81.227
397.0	81.157
398.0	81.138
399.0	81.028
400.0	81.003
401.0	80.924
402.0	80.913
403.0	80.792
404.0	80.709
405.0	80.617
406.0	80.583
407.0	80.481
408.0	80.362
409.0	80.253
410.0	80.178
411.0	80.157
412.0	80.091
413.0	79.969
414.0	79.872
415.0	79.774
416.0	79.716
417.0	79.594
418.0	79.472
419.0	79.367
420.0	79.278
421.0	79.231
422.0	79.185
423.0	79.086
424.0	78.976
425.0	78.810
426.0	78.724
427.0	78.644
428.0	78.539
429.0	78.401
430.0	78.290
431.0	78.225
432.0	78.117
433.0	77.975
434.0	77.771
435.0	77.612
436.0	77.423
437.0	77.326
438.0	77.216
439.0	77.149
440.0	77.018
441.0	76.902
442.0	76.767
443.0	76.620
444.0	76.463
445.0	76.292
446.0	76.163
447.0	76.008
448.0	75.863
449.0	75.738
450.0	75.588
451.0	75.445
452.0	75.275
453.0	75.121
454.0	74.887
455.0	74.690
456.0	74.531
457.0	74.421
458.0	74.269
459.0	74.098
460.0	73.914
461.0	73.753
462.0	73.589
463.0	73.412
464.0	73.249
465.0	73.066
466.0	72.906
467.0	72.724
468.0	72.584
469.0	72.405
470.0	72.260
471.0	72.072
472.0	71.929
473.0	71.735
474.0	71.566
475.0	71.357
476.0	71.190
477.0	71.003
478.0	70.807
479.0	70.568
480.0	70.341
481.0	70.137
482.0	69.967
483.0	69.807
484.0	69.645
485.0	69.477
486.0	69.247
487.0	69.039
488.0	68.797
489.0	68.619
490.0	68.419
491.0	68.274
492.0	68.118
493.0	67.971
494.0	67.737
495.0	67.500
496.0	67.267
497.0	67.056
498.0	66.877
499.0	66.662
500.0	66.521
501.0	66.309
502.0	66.144
503.0	65.869
504.0	65.678
505.0	65.455
506.0	65.273
507.0	65.024
508.0	64.838
509.0	64.671
510.0	64.527
511.0	64.323
512.0	64.125
513.0	63.892
514.0	63.685
515.0	63.466
516.0	63.312
517.0	63.130
518.0	62.944
519.0	62.737
520.0	62.530
521.0	62.324
522.0	62.162
523.0	62.005
524.0	61.843
525.0	61.625
526.0	61.400
527.0	61.207
528.0	61.032
529.0	60.886
530.0	60.655
531.0	60.460
532.0	60.234
533.0	60.101
534.0	59.922
535.0	59.739
536.0	59.599
537.0	59.444
538.0	59.320
539.0	59.123
540.0	58.950
541.0	58.764
542.0	58.597
543.0	58.437
544.0	58.316
545.0	58.147
546.0	58.023
547.0	57.832
548.0	57.712
549.0	57.534
550.0	57.382
551.0	57.218
552.0	57.096
553.0	56.973
554.0	56.817
555.0	56.666
556.0	56.517
557.0	56.439
558.0	56.300
559.0	56.198
560.0	56.027
561.0	55.911
562.0	55.771
563.0	55.660
564.0	55.513
565.0	55.397
566.0	55.311
567.0	55.221
568.0	55.108
569.0	54.997
570.0	54.898
571.0	54.832
572.0	54.728
573.0	54.654
574.0	54.523
575.0	54.405
576.0	54.296
577.0	54.235
578.0	54.161
579.0	54.088
580.0	53.979
581.0	53.884
582.0	53.810
583.0	53.750
584.0	53.698
585.0	53.605
586.0	53.542
587.0	53.482
588.0	53.430
589.0	53.371
590.0	53.329
591.0	53.292
592.0	53.239
593.0	53.193
594.0	53.138
595.0	53.108
596.0	53.079
597.0	53.061
598.0	53.035
599.0	52.990
600.0	52.939
601.0	52.917
602.0	52.887
603.0	52.883
604.0	52.871
605.0	52.855
606.0	52.829
607.0	52.820
608.0	52.800
609.0	52.785
610.0	52.763
611.0	52.785
612.0	52.789
613.0	52.785
614.0	52.781
615.0	52.804
616.0	52.811
617.0	52.806
618.0	52.813
619.0	52.819
620.0	52.859
621.0	52.848
622.0	52.881
623.0	52.854
624.0	52.852
625.0	52.860
626.0	52.921
627.0	52.979
628.0	53.034
629.0	53.042
630.0	53.065
631.0	53.059
632.0	53.099
633.0	53.169
634.0	53.235
635.0	53.265
636.0	53.301
637.0	53.321
638.0	53.355
639.0	53.385
640.0	53.454
641.0	53.549
642.0	53.629
643.0	53.652
644.0	53.707
645.0	53.748
646.0	53.839
647.0	53.880
648.0	53.954
649.0	54.024
650.0	54.093
651.0	54.153
652.0	54.219
653.0	54.347
654.0	54.445
655.0	54.597
656.0	54.686
657.0	54.791
658.0	54.846
659.0	54.931
660.0	55.028
661.0	55.120
662.0	55.203
663.0	55.291
664.0	55.381
665.0	55.449
666.0	55.523
667.0	55.584
668.0	55.656
669.0	55.744
670.0	55.867
671.0	55.984
672.0	56.104
673.0	56.219
674.0	56.363
675.0	56.434
676.0	56.513
677.0	56.584
678.0	56.683
679.0	56.750
680.0	56.832
681.0	56.956
682.0	57.045
683.0	57.160
684.0	57.176
685.0	57.225
686.0	57.275
687.0	57.385
688.0	57.498
689.0	57.601
690.0	57.662
691.0	57.731
692.0	57.779
693.0	57.802
694.0	57.867
695.0	57.876
696.0	57.956
697.0	57.971
698.0	58.047
699.0	58.140
700.0	58.201
701.0	58.271
702.0	58.278
703.0	58.343
704.0	58.306
705.0	58.382
706.0	58.409
707.0	58.493
708.0	58.499
709.0	58.549
710.0	58.591
711.0	58.659
712.0	58.676
713.0	58.663
714.0	58.669
715.0	58.642
716.0	58.680
717.0	58.631
718.0	58.668
719.0	58.711
720.0	58.716
721.0	58.744
722.0	58.762
723.0	58.815
724.0	58.797
725.0	58.722
726.0	58.753
727.0	58.792
728.0	58.871
729.0	58.901
730.0	58.885
731.0	58.829
732.0	58.754
733.0	58.762
734.0	58.790
735.0	58.840
736.0	58.945
737.0	58.966
738.0	58.924
739.0	58.841
740.0	58.850
741.0	58.920
742.0	58.861
743.0	58.801
744.0	58.800
745.0	58.884
746.0	58.868
747.0	58.838
748.0	58.751
749.0	58.805
750.0	58.730
751.0	58.711
752.0	58.715
753.0	58.725
754.0	58.787
755.0	58.716
756.0	58.781
757.0	58.781
758.0	58.845
759.0	58.848
760.0	58.845
761.0	58.849
762.0	58.791
763.0	58.793
764.0	58.804
765.0	58.844
766.0	58.892
767.0	58.849
768.0	58.788
769.0	58.738
770.0	58.703
771.0	58.752
772.0	58.721
773.0	58.807
774.0	58.767
775.0	58.814
776.0	58.703
777.0	58.781
778.0	58.777
779.0	58.848
780.0	58.833
781.0	58.784
782.0	58.803
783.0	58.697
784.0	58.802
785.0	58.854
786.0	59.008
787.0	58.961
788.0	58.854
789.0	58.808
790.0	58.868
791.0	58.934
792.0	58.888
793.0	58.817
794.0	58.765
795.0	58.788
796.0	58.815
797.0	58.885
798.0	58.871
799.0	58.890
800.0	58.866
801.0	58.824
802.0	58.750
803.0	58.737
804.0	58.748
805.0	58.776
806.0	58.730
807.0	58.743
808.0	58.727
809.0	58.787
810.0	58.778
811.0	58.819
812.0	58.765
813.0	58.845
814.0	58.855
815.0	58.948
816.0	58.979
817.0	58.967
818.0	58.932
819.0	58.856
820.0	58.809
821.0	58.781
822.0	58.734
823.0	58.777
824.0	58.777
825.0	58.866
826.0	58.833
827.0	58.918
828.0	58.892
829.0	58.905
830.0	58.910
831.0	59.002
832.0	59.068
833.0	59.071
834.0	59.006
835.0	59.013
836.0	58.977
837.0	59.001
838.0	59.091
839.0	59.176
840.0	59.210
841.0	59.158
842.0	59.110
843.0	59.080
844.0	59.050
845.0	59.109
846.0	59.082
847.0	59.185
848.0	59.253
849.0	59.256
850.0	59.127
851.0	59.068
852.0	59.172
853.0	59.392
854.0	59.337
855.0	59.411
856.0	59.233
857.0	59.254
858.0	59.344
859.0	59.505
860.0	59.824
861.0	59.734
862.0	59.666
863.0	59.464
864.0	59.599
865.0	59.636
866.0	59.466
867.0	59.271
868.0	59.224
869.0	59.343
870.0	59.649
871.0	59.711
872.0	59.683
873.0	59.529
874.0	59.790
875.0	60.434
876.0	60.609
877.0	60.672
878.0	60.579
879.0	60.720
880.0	60.743
881.0	60.714
882.0	60.215
883.0	60.247
884.0	59.684
885.0	60.210
886.0	60.168
887.0	60.643
888.0	60.181
889.0	59.890
890.0	59.734
891.0	60.083
892.0	60.737
893.0	60.868
894.0	60.666
895.0	60.472
896.0	60.482
897.0	61.259
898.0	61.783
899.0	61.464
900.0	60.918
901.0	60.227
902.0	60.377
903.0	60.469
904.0	60.445
905.0	60.704
906.0	60.566
907.0	60.620
908.0	60.594
909.0	60.684
910.0	60.749
911.0	60.776
912.0	60.809
913.0	60.772
914.0	60.802
915.0	60.801
916.0	60.923
917.0	60.955
918.0	61.026
919.0	60.973
920.0	60.983
921.0	61.025
922.0	60.993
923.0	60.978
924.0	61.025
925.0	61.143
926.0	61.197
927.0	61.216
928.0	61.187
929.0	61.165
930.0	61.266
931.0	61.388
932.0	61.544
933.0	61.534
934.0	61.583
935.0	61.544
936.0	61.519
937.0	61.487
938.0	61.630
939.0	61.698
940.0	61.790
941.0	61.746
942.0	61.753
943.0	61.832
944.0	61.950
945.0	62.040
946.0	61.999
947.0	62.021
948.0	62.065
949.0	62.134
950.0	62.178
951.0	62.172
952.0	62.239
953.0	62.286
954.0	62.339
955.0	62.369
956.0	62.393
957.0	62.552
958.0	62.620
959.0	62.681
960.0	62.667
961.0	62.678
962.0	62.750
963.0	62.787
964.0	62.817
965.0	62.821
966.0	62.888
967.0	63.013
968.0	63.074
969.0	63.146
970.0	63.177
971.0	63.253
972.0	63.262
973.0	63.295
974.0	63.339
975.0	63.406
976.0	63.465
977.0	63.504
978.0	63.564
979.0	63.629
980.0	63.689
981.0	63.732
982.0	63.798
983.0	63.837
984.0	63.864
985.0	63.921
986.0	64.003
987.0	64.118
988.0	64.174
989.0	64.220
990.0	64.253
991.0	64.323
992.0	64.373
993.0	64.422
994.0	64.456
995.0	64.538
996.0	64.605
997.0	64.648
998.0	64.681
999.0	64.773
1000.0	64.820
1001.0	64.884
1002.0	64.911
1003.0	65.011
1004.0	65.057
1005.0	65.121
1006.0	65.166
1007.0	65.292
1008.0	65.325
1009.0	65.394
1010.0	65.410
1011.0	65.508
1012.0	65.605
1013.0	65.688
1014.0	65.745
1015.0	65.786
1016.0	65.846
1017.0	65.929
1018.0	65.984
1019.0	66.053
1020.0	66.102
1021.0	66.167
1022.0	66.222
1023.0	66.302
1024.0	66.386
1025.0	66.455
1026.0	66.545
1027.0	66.607
1028.0	66.685
1029.0	66.747
1030.0	66.810
1031.0	66.874
1032.0	66.901
1033.0	66.987
1034.0	67.053
1035.0	67.133
1036.0	67.171
1037.0	67.241
1038.0	67.323
1039.0	67.397
1040.0	67.464
1041.0	67.526
1042.0	67.574
1043.0	67.640
1044.0	67.680
1045.0	67.801
1046.0	67.885
1047.0	67.989
1048.0	68.036
1049.0	68.085
1050.0	68.129
1051.0	68.191
1052.0	68.264
1053.0	68.365
1054.0	68.455
1055.0	68.539
1056.0	68.614
1057.0	68.675
1058.0	68.737
1059.0	68.812
1060.0	68.878
1061.0	68.937
1062.0	69.005
1063.0	69.067
1064.0	69.160
1065.0	69.203
1066.0	69.305
1067.0	69.370
1068.0	69.444
1069.0	69.486
1070.0	69.548
1071.0	69.628
1072.0	69.706
1073.0	69.779
1074.0	69.845
1075.0	69.917
1076.0	69.974
1077.0	70.047
1078.0	70.132
1079.0	70.218
1080.0	70.277
1081.0	70.337
1082.0	70.420
1083.0	70.513
1084.0	70.545
1085.0	70.613
1086.0	70.698
1087.0	70.815
1088.0	70.880
1089.0	70.928
1090.0	70.999
1091.0	71.080
1092.0	71.155
1093.0	71.225
1094.0	71.266
1095.0	71.328
1096.0	71.384
1097.0	71.462
1098.0	71.509
1099.0	71.588
1100.0	71.683
1101.0	71.778
1102.0	71.823
1103.0	71.879
1104.0	71.932
1105.0	72.026
1106.0	72.081
1107.0	72.155
1108.0	72.194
1109.0	72.271
1110.0	72.358
1111.0	72.436
1112.0	72.507
1113.0	72.563
1114.0	72.622
1115.0	72.701
1116.0	72.753
1117.0	72.839
1118.0	72.859
1119.0	72.914
1120.0	72.970
1121.0	73.065
1122.0	73.126
1123.0	73.168
1124.0	73.209
1125.0	73.275
1126.0	73.350
1127.0	73.411
1128.0	73.490
1129.0	73.556
1130.0	73.623
1131.0	73.678
1132.0	73.723
1133.0	73.769
1134.0	73.816
1135.0	73.877
1136.0	73.934
1137.0	73.982
1138.0	74.043
1139.0	74.094
1140.0	74.159
1141.0	74.204
1142.0	74.246
1143.0	74.315
1144.0	74.353
1145.0	74.412
1146.0	74.477
1147.0	74.549
1148.0	74.618
1149.0	74.619
1150.0	74.665
1151.0	74.713
1152.0	74.794
1153.0	74.830
1154.0	74.881
1155.0	74.918
1156.0	74.956
1157.0	74.992
1158.0	75.046
1159.0	75.112
1160.0	75.163
1161.0	75.217
1162.0	75.261
1163.0	75.308
1164.0	75.367
1165.0	75.399
1166.0	75.446
1167.0	75.486
1168.0	75.525
1169.0	75.551
1170.0	75.600
1171.0	75.664
1172.0	75.714
1173.0	75.733
1174.0	75.763
1175.0	75.822
1176.0	75.863
1177.0	75.939
1178.0	75.978
1179.0	76.016
1180.0	76.019
1181.0	76.049
1182.0	76.077
1183.0	76.126
1184.0	76.167
1185.0	76.208
1186.0	76.258
1187.0	76.298
1188.0	76.355
1189.0	76.362
1190.0	76.384
1191.0	76.416
1192.0	76.475
1193.0	76.522
1194.0	76.541
1195.0	76.575
1196.0	76.609
1197.0	76.651
1198.0	76.681
1199.0	76.727
1200.0	76.767
1201.0	76.787
1202.0	76.782
1203.0	76.807
1204.0	76.831
1205.0	76.884
1206.0	76.934
1207.0	76.963
1208.0	76.984
1209.0	76.979
1210.0	77.032
1211.0	77.045
1212.0	77.084
1213.0	77.063
1214.0	77.080
1215.0	77.096
1216.0	77.136
1217.0	77.190
1218.0	77.201
1219.0	77.234
1220.0	77.256
1221.0	77.298
1222.0	77.325
1223.0	77.352
1224.0	77.370
1225.0	77.406
1226.0	77.406
1227.0	77.408
1228.0	77.429
1229.0	77.446
1230.0	77.479
1231.0	77.474
1232.0	77.485
1233.0	77.483
1234.0	77.505
1235.0	77.572
1236.0	77.629
1237.0	77.618
1238.0	77.573
1239.0	77.567
1240.0	77.606
1241.0	77.627
1242.0	77.633
1243.0	77.649
1244.0	77.660
1245.0	77.658
1246.0	77.654
1247.0	77.670
1248.0	77.703
1249.0	77.714
1250.0	77.722
1251.0	77.710
1252.0	77.701
1253.0	77.717
1254.0	77.744
1255.0	77.786
1256.0	77.779
1257.0	77.800
1258.0	77.803
1259.0	77.815
1260.0	77.774
1261.0	77.800
1262.0	77.819
1263.0	77.841
1264.0	77.815
1265.0	77.815
1266.0	77.820
1267.0	77.812
1268.0	77.814
1269.0	77.811
1270.0	77.821
1271.0	77.834
1272.0	77.849
1273.0	77.874
1274.0	77.861
1275.0	77.867
1276.0	77.844
1277.0	77.843
1278.0	77.836
1279.0	77.866
1280.0	77.866
1281.0	77.867
1282.0	77.825
1283.0	77.820
1284.0	77.821
1285.0	77.821
1286.0	77.813
1287.0	77.810
1288.0	77.798
1289.0	77.795
1290.0	77.783
1291.0	77.822
1292.0	77.807
1293.0	77.802
1294.0	77.774
1295.0	77.767
1296.0	77.751
1297.0	77.747
1298.0	77.728
1299.0	77.735
1300.0	77.736
1301.0	77.742
1302.0	77.715
1303.0	77.696
1304.0	77.682
1305.0	77.698
1306.0	77.682
1307.0	77.690
1308.0	77.660
1309.0	77.690
1310.0	77.672
1311.0	77.658
1312.0	77.586
1313.0	77.577
1314.0	77.585
1315.0	77.576
1316.0	77.570
1317.0	77.533
1318.0	77.551
1319.0	77.534
1320.0	77.546
1321.0	77.518
1322.0	77.534
1323.0	77.495
1324.0	77.499
1325.0	77.457
1326.0	77.460
1327.0	77.408
1328.0	77.383
1329.0	77.370
1330.0	77.384
1331.0	77.378
1332.0	77.362
1333.0	77.306
1334.0	77.282
1335.0	77.283
1336.0	77.274
1337.0	77.241
1338.0	77.197
1339.0	77.202
1340.0	77.219
1341.0	77.208
1342.0	77.183
1343.0	77.183
1344.0	77.161
1345.0	77.160
1346.0	77.125
1347.0	77.139
1348.0	77.093
1349.0	77.091
1350.0	77.038
1351.0	77.034
1352.0	76.968
1353.0	76.936
1354.0	76.922
1355.0	76.906
1356.0	76.873
1357.0	76.818
1358.0	76.765
1359.0	76.745
1360.0	76.723
1361.0	76.712
1362.0	76.698
1363.0	76.682
1364.0	76.658
1365.0	76.587
1366.0	76.555
1367.0	76.535
1368.0	76.595
1369.0	76.593
1370.0	76.574
1371.0	76.497
1372.0	76.451
1373.0	76.425
1374.0	76.419
1375.0	76.404
1376.0	76.371
1377.0	76.308
1378.0	76.308
1379.0	76.285
1380.0	76.319
1381.0	76.223
1382.0	76.176
1383.0	76.093
1384.0	76.062
1385.0	76.067
1386.0	76.049
1387.0	76.079
1388.0	76.037
1389.0	76.054
1390.0	76.008
1391.0	75.989
1392.0	75.918
1393.0	75.935
1394.0	75.909
1395.0	75.934
1396.0	75.914
1397.0	75.882
1398.0	75.819
1399.0	75.800
1400.0	75.817
1401.0	75.837
1402.0	75.802
1403.0	75.778
1404.0	75.735
1405.0	75.709
1406.0	75.674
1407.0	75.654
1408.0	75.629
1409.0	75.606
1410.0	75.607
1411.0	75.591
1412.0	75.575
1413.0	75.539
1414.0	75.543
1415.0	75.522
1416.0	75.501
1417.0	75.487
1418.0	75.477
1419.0	75.471
1420.0	75.398
1421.0	75.366
1422.0	75.326
1423.0	75.345
1424.0	75.336
1425.0	75.324
1426.0	75.246
1427.0	75.205
1428.0	75.163
1429.0	75.189
1430.0	75.194
1431.0	75.207
1432.0	75.188
1433.0	75.166
1434.0	75.127
1435.0	75.088
1436.0	75.038
1437.0	74.982
1438.0	74.958
1439.0	74.910
1440.0	74.902
1441.0	74.855
1442.0	74.838
1443.0	74.801
1444.0	74.792
1445.0	74.803
1446.0	74.773
1447.0	74.705
1448.0	74.679
1449.0	74.645
1450.0	74.647
1451.0	74.634
1452.0	74.625
1453.0	74.603
1454.0	74.570
1455.0	74.578
1456.0	74.566
1457.0	74.511
1458.0	74.476
1459.0	74.439
1460.0	74.411
1461.0	74.389
1462.0	74.407
1463.0	74.378
1464.0	74.324
1465.0	74.216
1466.0	74.186
1467.0	74.190
1468.0	74.198
1469.0	74.210
1470.0	74.168
1471.0	74.160
1472.0	74.080
1473.0	74.065
1474.0	73.995
1475.0	74.052
1476.0	74.032
1477.0	74.049
1478.0	73.982
1479.0	73.922
1480.0	73.866
1481.0	73.831
1482.0	73.819
1483.0	73.757
1484.0	73.698
1485.0	73.683
1486.0	73.680
1487.0	73.650
1488.0	73.593
1489.0	73.567
1490.0	73.536
1491.0	73.535
1492.0	73.502
1493.0	73.480
1494.0	73.456
1495.0	73.459
1496.0	73.407
1497.0	73.323
1498.0	73.329
1499.0	73.360
1500.0	73.364
1501.0	73.336
1502.0	73.274
1503.0	73.237
1504.0	73.139
1505.0	73.145
1506.0	73.119
1507.0	73.135
1508.0	73.113
1509.0	73.105
1510.0	73.082
1511.0	73.018
1512.0	72.964
1513.0	72.920
1514.0	72.917
1515.0	72.874
1516.0	72.853
1517.0	72.814
1518.0	72.833
1519.0	72.808
1520.0	72.782
1521.0	72.692
1522.0	72.654
1523.0	72.581
1524.0	72.638
1525.0	72.674
1526.0	72.689
1527.0	72.675
1528.0	72.532
1529.0	72.525
1530.0	72.463
1531.0	72.522
1532.0	72.450
1533.0	72.375
1534.0	72.317
1535.0	72.335
1536.0	72.325
1537.0	72.299
1538.0	72.232
1539.0	72.201
1540.0	72.166
1541.0	72.208
1542.0	72.148
1543.0	72.131
1544.0	72.052
1545.0	72.068
1546.0	72.025
1547.0	72.002
1548.0	71.991
1549.0	71.951
1550.0	71.923
1551.0	71.880
1552.0	71.847
1553.0	71.796
1554.0	71.756
1555.0	71.751
1556.0	71.719
1557.0	71.695
1558.0	71.681
1559.0	71.753
1560.0	71.727
1561.0	71.654
1562.0	71.567
1563.0	71.591
1564.0	71.607
1565.0	71.574
1566.0	71.495
1567.0	71.470
1568.0	71.499
1569.0	71.479
1570.0	71.444
1571.0	71.352
1572.0	71.379
1573.0	71.372
1574.0	71.371
1575.0	71.324
1576.0	71.286
1577.0	71.228
1578.0	71.180
1579.0	71.124
1580.0	71.097
1581.0	71.101
1582.0	71.059
1583.0	71.097
1584.0	71.010
1585.0	71.040
1586.0	70.992
1587.0	70.950
1588.0	70.899
1589.0	70.797
1590.0	70.809
1591.0	70.826
1592.0	70.869
1593.0	70.869
1594.0	70.818
1595.0	70.788
1596.0	70.673
1597.0	70.642
1598.0	70.648
1599.0	70.716
1600.0	70.724
