[SUMMARY]
Software Information
Software Name:	UVProbe
Version:	2.43
Mode:	Normal Mode

Data Information
Data is:	Original
Analyst:	
Date/Time:	23/02/2023 18:14:47
Comments:	

Instrument Information
Instrument Name:	SolidSpec3700
Instrument Type:	SolidSpec-3700 Series
Model (S/N):	SolidSpec3700 ( A11085100264CZ )

[METHOD]
[Measurement Properties]
Wavelength Range (nm.):	285,00 to 1600,00
Scan Speed:	Medium
Sampling Interval:	1,0
Auto Sampling Interval:	Disabled
Scan Mode:	Single

[Sample Preparation Properties]
Weight:	
Volume:	
Dilution:	
Path Length:	
Additional Information:	

[Instrument Properties]
Instrument Type:	SolidSpec-3700 Series
Measuring Mode:	Transmittance
Slit Width:	5,0 nm
Time Constant:	1,0 sec.
Source Lamp:	Auto
Light Source Change Wavelength:	282,00 nm
Detector Unit:	Integral Sphere
Detector Change Wavelength:	900,00 nm  1650,00 nm
Grating Change Wavelength:	800,00 nm
S/R Exchange:	Normal
Detector Lock:	Auto
Slit Program:	Fixed
Beam Mode:	Double
Stair Correction:	Disable

[Attachment Properties]
Attachment:	X-Y Stage
Sequence File:	Positions.xys

[Operation]
Threshold:	0,0010000
Points:	4
InterPolate:	Disabled
Average:	Disabled

[DATA]
Wavelength	Data
285.0	66.430
286.0	66.488
287.0	66.562
288.0	66.704
289.0	66.731
290.0	66.666
291.0	66.539
292.0	66.564
293.0	66.649
294.0	66.807
295.0	66.788
296.0	66.817
297.0	66.944
298.0	67.026
299.0	67.014
300.0	67.022
301.0	66.966
302.0	67.146
303.0	67.061
304.0	67.266
305.0	67.268
306.0	67.332
307.0	67.273
308.0	67.244
309.0	67.199
310.0	67.068
311.0	66.892
312.0	66.811
313.0	66.650
314.0	66.440
315.0	66.166
316.0	65.865
317.0	65.621
318.0	65.393
319.0	65.071
320.0	64.882
321.0	64.564
322.0	64.414
323.0	64.009
324.0	63.638
325.0	63.093
326.0	62.601
327.0	62.262
328.0	62.122
329.0	61.963
330.0	61.593
331.0	61.118
332.0	60.612
333.0	60.282
334.0	59.989
335.0	59.720
336.0	59.346
337.0	59.010
338.0	58.643
339.0	58.364
340.0	58.100
341.0	57.965
342.0	57.773
343.0	57.599
344.0	57.383
345.0	57.239
346.0	57.101
347.0	56.960
348.0	56.906
349.0	56.948
350.0	57.049
351.0	57.031
352.0	57.167
353.0	57.277
354.0	57.605
355.0	57.737
356.0	57.928
357.0	58.090
358.0	58.414
359.0	58.794
360.0	59.048
361.0	59.293
362.0	59.533
363.0	59.894
364.0	60.187
365.0	60.487
366.0	60.708
367.0	60.894
368.0	61.023
369.0	61.189
370.0	61.360
371.0	61.490
372.0	61.659
373.0	61.745
374.0	61.899
375.0	61.957
376.0	62.022
377.0	62.093
378.0	62.153
379.0	62.239
380.0	62.233
381.0	62.146
382.0	62.130
383.0	62.156
384.0	62.166
385.0	62.118
386.0	62.076
387.0	62.126
388.0	62.134
389.0	62.080
390.0	62.046
391.0	62.018
392.0	62.037
393.0	62.011
394.0	61.919
395.0	61.810
396.0	61.633
397.0	61.523
398.0	61.435
399.0	61.314
400.0	61.216
401.0	61.038
402.0	60.918
403.0	60.735
404.0	60.568
405.0	60.401
406.0	60.263
407.0	60.083
408.0	59.903
409.0	59.688
410.0	59.513
411.0	59.310
412.0	59.109
413.0	58.841
414.0	58.628
415.0	58.405
416.0	58.271
417.0	58.014
418.0	57.748
419.0	57.473
420.0	57.261
421.0	57.022
422.0	56.783
423.0	56.534
424.0	56.289
425.0	56.037
426.0	55.824
427.0	55.592
428.0	55.335
429.0	55.016
430.0	54.759
431.0	54.477
432.0	54.224
433.0	53.983
434.0	53.734
435.0	53.482
436.0	53.228
437.0	53.009
438.0	52.827
439.0	52.685
440.0	52.470
441.0	52.330
442.0	52.141
443.0	52.049
444.0	51.919
445.0	51.780
446.0	51.661
447.0	51.516
448.0	51.423
449.0	51.330
450.0	51.255
451.0	51.204
452.0	51.180
453.0	51.162
454.0	51.091
455.0	51.061
456.0	51.046
457.0	51.096
458.0	51.125
459.0	51.141
460.0	51.151
461.0	51.167
462.0	51.232
463.0	51.308
464.0	51.409
465.0	51.475
466.0	51.540
467.0	51.598
468.0	51.672
469.0	51.776
470.0	51.888
471.0	51.999
472.0	52.086
473.0	52.207
474.0	52.322
475.0	52.456
476.0	52.570
477.0	52.736
478.0	52.895
479.0	53.015
480.0	53.123
481.0	53.254
482.0	53.434
483.0	53.645
484.0	53.813
485.0	53.977
486.0	54.108
487.0	54.307
488.0	54.471
489.0	54.664
490.0	54.819
491.0	55.055
492.0	55.258
493.0	55.477
494.0	55.638
495.0	55.835
496.0	56.024
497.0	56.243
498.0	56.473
499.0	56.697
500.0	56.952
501.0	57.175
502.0	57.444
503.0	57.673
504.0	57.954
505.0	58.195
506.0	58.431
507.0	58.659
508.0	58.936
509.0	59.234
510.0	59.499
511.0	59.755
512.0	60.050
513.0	60.314
514.0	60.572
515.0	60.825
516.0	61.141
517.0	61.431
518.0	61.673
519.0	61.960
520.0	62.250
521.0	62.522
522.0	62.789
523.0	63.074
524.0	63.397
525.0	63.660
526.0	63.928
527.0	64.206
528.0	64.481
529.0	64.789
530.0	65.023
531.0	65.320
532.0	65.568
533.0	65.857
534.0	66.138
535.0	66.351
536.0	66.637
537.0	66.864
538.0	67.162
539.0	67.368
540.0	67.560
541.0	67.773
542.0	67.960
543.0	68.188
544.0	68.429
545.0	68.639
546.0	68.878
547.0	69.016
548.0	69.276
549.0	69.396
550.0	69.567
551.0	69.686
552.0	69.870
553.0	70.036
554.0	70.180
555.0	70.303
556.0	70.402
557.0	70.571
558.0	70.689
559.0	70.851
560.0	70.893
561.0	70.971
562.0	71.030
563.0	71.122
564.0	71.239
565.0	71.302
566.0	71.380
567.0	71.408
568.0	71.466
569.0	71.544
570.0	71.631
571.0	71.714
572.0	71.734
573.0	71.765
574.0	71.781
575.0	71.803
576.0	71.832
577.0	71.840
578.0	71.869
579.0	71.854
580.0	71.855
581.0	71.822
582.0	71.846
583.0	71.838
584.0	71.839
585.0	71.801
586.0	71.817
587.0	71.838
588.0	71.839
589.0	71.822
590.0	71.804
591.0	71.789
592.0	71.741
593.0	71.687
594.0	71.631
595.0	71.611
596.0	71.593
597.0	71.539
598.0	71.510
599.0	71.467
600.0	71.447
601.0	71.412
602.0	71.312
603.0	71.262
604.0	71.192
605.0	71.154
606.0	71.103
607.0	71.057
608.0	70.978
609.0	70.930
610.0	70.884
611.0	70.884
612.0	70.843
613.0	70.709
614.0	70.628
615.0	70.560
616.0	70.578
617.0	70.517
618.0	70.474
619.0	70.362
620.0	70.297
621.0	70.185
622.0	70.139
623.0	70.073
624.0	69.990
625.0	69.919
626.0	69.865
627.0	69.825
628.0	69.742
629.0	69.662
630.0	69.597
631.0	69.554
632.0	69.459
633.0	69.400
634.0	69.330
635.0	69.268
636.0	69.187
637.0	69.045
638.0	68.979
639.0	68.893
640.0	68.832
641.0	68.752
642.0	68.662
643.0	68.595
644.0	68.512
645.0	68.407
646.0	68.334
647.0	68.277
648.0	68.261
649.0	68.186
650.0	68.105
651.0	67.983
652.0	67.912
653.0	67.841
654.0	67.782
655.0	67.713
656.0	67.639
657.0	67.554
658.0	67.442
659.0	67.364
660.0	67.284
661.0	67.229
662.0	67.164
663.0	67.141
664.0	67.084
665.0	66.966
666.0	66.850
667.0	66.800
668.0	66.740
669.0	66.690
670.0	66.573
671.0	66.473
672.0	66.353
673.0	66.290
674.0	66.247
675.0	66.226
676.0	66.110
677.0	66.050
678.0	65.879
679.0	65.803
680.0	65.707
681.0	65.760
682.0	65.726
683.0	65.681
684.0	65.545
685.0	65.419
686.0	65.244
687.0	65.199
688.0	65.214
689.0	65.251
690.0	65.127
691.0	65.001
692.0	64.907
693.0	64.854
694.0	64.836
695.0	64.688
696.0	64.668
697.0	64.608
698.0	64.607
699.0	64.559
700.0	64.479
701.0	64.445
702.0	64.377
703.0	64.310
704.0	64.253
705.0	64.204
706.0	64.141
707.0	64.144
708.0	64.025
709.0	64.021
710.0	63.911
711.0	63.901
712.0	63.834
713.0	63.754
714.0	63.667
715.0	63.621
716.0	63.609
717.0	63.498
718.0	63.384
719.0	63.277
720.0	63.261
721.0	63.188
722.0	63.132
723.0	63.102
724.0	63.089
725.0	63.012
726.0	62.952
727.0	62.883
728.0	62.832
729.0	62.784
730.0	62.665
731.0	62.638
732.0	62.496
733.0	62.432
734.0	62.397
735.0	62.361
736.0	62.435
737.0	62.351
738.0	62.328
739.0	62.212
740.0	62.148
741.0	62.079
742.0	61.941
743.0	61.842
744.0	61.823
745.0	61.835
746.0	61.823
747.0	61.782
748.0	61.596
749.0	61.472
750.0	61.413
751.0	61.482
752.0	61.541
753.0	61.395
754.0	61.301
755.0	61.132
756.0	61.089
757.0	61.089
758.0	61.022
759.0	60.979
760.0	60.949
761.0	60.917
762.0	60.955
763.0	60.883
764.0	60.869
765.0	60.749
766.0	60.717
767.0	60.676
768.0	60.577
769.0	60.506
770.0	60.432
771.0	60.385
772.0	60.267
773.0	60.312
774.0	60.319
775.0	60.334
776.0	60.199
777.0	60.166
778.0	60.130
779.0	60.103
780.0	60.044
781.0	59.899
782.0	59.781
783.0	59.641
784.0	59.626
785.0	59.624
786.0	59.687
787.0	59.680
788.0	59.607
789.0	59.437
790.0	59.458
791.0	59.491
792.0	59.495
793.0	59.358
794.0	59.265
795.0	59.225
796.0	59.169
797.0	59.123
798.0	59.181
799.0	59.158
800.0	59.068
801.0	58.877
802.0	58.783
803.0	58.734
804.0	58.707
805.0	58.663
806.0	58.653
807.0	58.581
808.0	58.529
809.0	58.478
810.0	58.463
811.0	58.457
812.0	58.429
813.0	58.424
814.0	58.377
815.0	58.348
816.0	58.322
817.0	58.323
818.0	58.280
819.0	58.209
820.0	58.106
821.0	58.085
822.0	58.007
823.0	58.002
824.0	57.873
825.0	57.892
826.0	57.770
827.0	57.809
828.0	57.756
829.0	57.804
830.0	57.747
831.0	57.747
832.0	57.724
833.0	57.709
834.0	57.674
835.0	57.691
836.0	57.624
837.0	57.572
838.0	57.477
839.0	57.405
840.0	57.392
841.0	57.373
842.0	57.355
843.0	57.336
844.0	57.296
845.0	57.306
846.0	57.205
847.0	57.244
848.0	57.262
849.0	57.231
850.0	57.144
851.0	57.090
852.0	57.155
853.0	57.213
854.0	57.153
855.0	57.157
856.0	57.079
857.0	57.151
858.0	57.191
859.0	57.136
860.0	57.151
861.0	57.054
862.0	56.893
863.0	56.826
864.0	56.910
865.0	57.147
866.0	57.056
867.0	56.874
868.0	56.666
869.0	56.678
870.0	56.537
871.0	56.328
872.0	56.189
873.0	56.264
874.0	56.865
875.0	57.192
876.0	57.314
877.0	57.266
878.0	57.287
879.0	57.109
880.0	57.239
881.0	57.234
882.0	57.163
883.0	57.107
884.0	56.851
885.0	56.913
886.0	56.743
887.0	57.157
888.0	57.092
889.0	56.695
890.0	56.704
891.0	56.897
892.0	57.484
893.0	57.007
894.0	56.991
895.0	56.841
896.0	56.624
897.0	56.850
898.0	57.000
899.0	57.733
900.0	57.532
901.0	57.261
902.0	56.844
903.0	56.983
904.0	56.846
905.0	56.791
906.0	56.667
907.0	56.730
908.0	56.778
909.0	56.804
910.0	56.854
911.0	56.870
912.0	56.738
913.0	56.767
914.0	56.806
915.0	56.862
916.0	56.830
917.0	56.876
918.0	56.882
919.0	56.837
920.0	56.819
921.0	56.949
922.0	57.018
923.0	57.052
924.0	57.001
925.0	56.994
926.0	56.960
927.0	57.004
928.0	56.964
929.0	56.862
930.0	56.854
931.0	56.899
932.0	57.037
933.0	57.091
934.0	57.140
935.0	57.100
936.0	57.049
937.0	57.088
938.0	57.142
939.0	57.190
940.0	57.185
941.0	57.214
942.0	57.209
943.0	57.194
944.0	57.233
945.0	57.304
946.0	57.308
947.0	57.251
948.0	57.233
949.0	57.283
950.0	57.364
951.0	57.415
952.0	57.418
953.0	57.497
954.0	57.468
955.0	57.507
956.0	57.466
957.0	57.586
958.0	57.576
959.0	57.592
960.0	57.520
961.0	57.548
962.0	57.620
963.0	57.618
964.0	57.627
965.0	57.576
966.0	57.665
967.0	57.756
968.0	57.807
969.0	57.820
970.0	57.796
971.0	57.853
972.0	57.854
973.0	57.853
974.0	57.840
975.0	57.869
976.0	57.900
977.0	57.911
978.0	57.930
979.0	57.938
980.0	57.984
981.0	57.993
982.0	58.021
983.0	58.014
984.0	58.023
985.0	58.066
986.0	58.092
987.0	58.150
988.0	58.160
989.0	58.172
990.0	58.165
991.0	58.189
992.0	58.190
993.0	58.212
994.0	58.234
995.0	58.291
996.0	58.315
997.0	58.311
998.0	58.281
999.0	58.318
1000.0	58.310
1001.0	58.361
1002.0	58.352
1003.0	58.395
1004.0	58.403
1005.0	58.435
1006.0	58.465
1007.0	58.516
1008.0	58.517
1009.0	58.557
1010.0	58.552
1011.0	58.572
1012.0	58.611
1013.0	58.638
1014.0	58.669
1015.0	58.651
1016.0	58.681
1017.0	58.716
1018.0	58.736
1019.0	58.738
1020.0	58.748
1021.0	58.769
1022.0	58.782
1023.0	58.789
1024.0	58.817
1025.0	58.854
1026.0	58.861
1027.0	58.867
1028.0	58.903
1029.0	58.904
1030.0	58.914
1031.0	58.899
1032.0	58.912
1033.0	58.969
1034.0	58.977
1035.0	59.025
1036.0	59.012
1037.0	59.039
1038.0	59.035
1039.0	59.037
1040.0	59.048
1041.0	59.084
1042.0	59.097
1043.0	59.121
1044.0	59.135
1045.0	59.175
1046.0	59.172
1047.0	59.175
1048.0	59.181
1049.0	59.199
1050.0	59.203
1051.0	59.211
1052.0	59.243
1053.0	59.301
1054.0	59.316
1055.0	59.313
1056.0	59.294
1057.0	59.317
1058.0	59.346
1059.0	59.382
1060.0	59.407
1061.0	59.414
1062.0	59.406
1063.0	59.406
1064.0	59.439
1065.0	59.467
1066.0	59.481
1067.0	59.482
1068.0	59.481
1069.0	59.489
1070.0	59.522
1071.0	59.568
1072.0	59.572
1073.0	59.565
1074.0	59.583
1075.0	59.611
1076.0	59.622
1077.0	59.628
1078.0	59.649
1079.0	59.680
1080.0	59.694
1081.0	59.702
1082.0	59.692
1083.0	59.721
1084.0	59.720
1085.0	59.730
1086.0	59.741
1087.0	59.769
1088.0	59.810
1089.0	59.821
1090.0	59.844
1091.0	59.846
1092.0	59.837
1093.0	59.860
1094.0	59.857
1095.0	59.876
1096.0	59.880
1097.0	59.900
1098.0	59.917
1099.0	59.922
1100.0	59.946
1101.0	59.937
1102.0	59.943
1103.0	59.940
1104.0	59.932
1105.0	59.954
1106.0	59.993
1107.0	60.064
1108.0	60.063
1109.0	60.059
1110.0	60.068
1111.0	60.089
1112.0	60.103
1113.0	60.094
1114.0	60.120
1115.0	60.119
1116.0	60.131
1117.0	60.100
1118.0	60.110
1119.0	60.100
1120.0	60.119
1121.0	60.148
1122.0	60.153
1123.0	60.161
1124.0	60.160
1125.0	60.170
1126.0	60.201
1127.0	60.186
1128.0	60.193
1129.0	60.191
1130.0	60.238
1131.0	60.245
1132.0	60.261
1133.0	60.239
1134.0	60.251
1135.0	60.239
1136.0	60.249
1137.0	60.228
1138.0	60.241
1139.0	60.241
1140.0	60.265
1141.0	60.243
1142.0	60.224
1143.0	60.251
1144.0	60.266
1145.0	60.288
1146.0	60.292
1147.0	60.296
1148.0	60.312
1149.0	60.275
1150.0	60.284
1151.0	60.266
1152.0	60.279
1153.0	60.247
1154.0	60.249
1155.0	60.252
1156.0	60.276
1157.0	60.291
1158.0	60.286
1159.0	60.271
1160.0	60.236
1161.0	60.235
1162.0	60.236
1163.0	60.236
1164.0	60.225
1165.0	60.216
1166.0	60.216
1167.0	60.236
1168.0	60.224
1169.0	60.225
1170.0	60.204
1171.0	60.212
1172.0	60.187
1173.0	60.162
1174.0	60.175
1175.0	60.187
1176.0	60.206
1177.0	60.195
1178.0	60.174
1179.0	60.140
1180.0	60.115
1181.0	60.107
1182.0	60.118
1183.0	60.126
1184.0	60.100
1185.0	60.079
1186.0	60.067
1187.0	60.085
1188.0	60.074
1189.0	60.018
1190.0	60.002
1191.0	59.987
1192.0	60.004
1193.0	59.994
1194.0	59.989
1195.0	59.974
1196.0	59.962
1197.0	59.936
1198.0	59.925
1199.0	59.905
1200.0	59.894
1201.0	59.858
1202.0	59.816
1203.0	59.800
1204.0	59.784
1205.0	59.778
1206.0	59.773
1207.0	59.757
1208.0	59.750
1209.0	59.721
1210.0	59.717
1211.0	59.661
1212.0	59.640
1213.0	59.602
1214.0	59.614
1215.0	59.577
1216.0	59.565
1217.0	59.545
1218.0	59.524
1219.0	59.503
1220.0	59.482
1221.0	59.490
1222.0	59.458
1223.0	59.427
1224.0	59.382
1225.0	59.370
1226.0	59.344
1227.0	59.326
1228.0	59.297
1229.0	59.279
1230.0	59.266
1231.0	59.262
1232.0	59.236
1233.0	59.179
1234.0	59.140
1235.0	59.123
1236.0	59.130
1237.0	59.097
1238.0	59.046
1239.0	59.009
1240.0	58.978
1241.0	58.946
1242.0	58.907
1243.0	58.899
1244.0	58.888
1245.0	58.848
1246.0	58.797
1247.0	58.749
1248.0	58.734
1249.0	58.708
1250.0	58.687
1251.0	58.642
1252.0	58.609
1253.0	58.606
1254.0	58.598
1255.0	58.573
1256.0	58.522
1257.0	58.502
1258.0	58.469
1259.0	58.439
1260.0	58.395
1261.0	58.386
1262.0	58.367
1263.0	58.338
1264.0	58.281
1265.0	58.243
1266.0	58.205
1267.0	58.189
1268.0	58.177
1269.0	58.159
1270.0	58.130
1271.0	58.075
1272.0	58.047
1273.0	58.034
1274.0	58.026
1275.0	58.000
1276.0	57.960
1277.0	57.927
1278.0	57.888
1279.0	57.863
1280.0	57.834
1281.0	57.822
1282.0	57.775
1283.0	57.722
1284.0	57.690
1285.0	57.662
1286.0	57.662
1287.0	57.636
1288.0	57.596
1289.0	57.561
1290.0	57.517
1291.0	57.508
1292.0	57.482
1293.0	57.436
1294.0	57.403
1295.0	57.364
1296.0	57.329
1297.0	57.292
1298.0	57.242
1299.0	57.219
1300.0	57.190
1301.0	57.177
1302.0	57.127
1303.0	57.086
1304.0	57.046
1305.0	57.031
1306.0	56.994
1307.0	56.946
1308.0	56.913
1309.0	56.914
1310.0	56.878
1311.0	56.820
1312.0	56.739
1313.0	56.706
1314.0	56.693
1315.0	56.670
1316.0	56.632
1317.0	56.579
1318.0	56.546
1319.0	56.524
1320.0	56.505
1321.0	56.465
1322.0	56.445
1323.0	56.399
1324.0	56.365
1325.0	56.310
1326.0	56.287
1327.0	56.247
1328.0	56.221
1329.0	56.173
1330.0	56.168
1331.0	56.114
1332.0	56.109
1333.0	56.046
1334.0	56.031
1335.0	56.002
1336.0	55.953
1337.0	55.911
1338.0	55.883
1339.0	55.877
1340.0	55.851
1341.0	55.772
1342.0	55.724
1343.0	55.725
1344.0	55.712
1345.0	55.699
1346.0	55.648
1347.0	55.636
1348.0	55.615
1349.0	55.610
1350.0	55.554
1351.0	55.520
1352.0	55.420
1353.0	55.357
1354.0	55.295
1355.0	55.304
1356.0	55.278
1357.0	55.237
1358.0	55.164
1359.0	55.142
1360.0	55.100
1361.0	55.101
1362.0	55.091
1363.0	55.074
1364.0	55.022
1365.0	54.972
1366.0	54.946
1367.0	54.934
1368.0	54.941
1369.0	54.906
1370.0	54.869
1371.0	54.777
1372.0	54.741
1373.0	54.680
1374.0	54.657
1375.0	54.626
1376.0	54.604
1377.0	54.571
1378.0	54.523
1379.0	54.481
1380.0	54.443
1381.0	54.401
1382.0	54.388
1383.0	54.363
1384.0	54.320
1385.0	54.281
1386.0	54.221
1387.0	54.234
1388.0	54.210
1389.0	54.223
1390.0	54.172
1391.0	54.123
1392.0	54.085
1393.0	54.075
1394.0	54.061
1395.0	54.026
1396.0	53.984
1397.0	53.953
1398.0	53.911
1399.0	53.874
1400.0	53.870
1401.0	53.871
1402.0	53.861
1403.0	53.791
1404.0	53.740
1405.0	53.695
1406.0	53.682
1407.0	53.661
1408.0	53.636
1409.0	53.603
1410.0	53.578
1411.0	53.585
1412.0	53.550
1413.0	53.521
1414.0	53.458
1415.0	53.422
1416.0	53.396
1417.0	53.392
1418.0	53.394
1419.0	53.342
1420.0	53.293
1421.0	53.240
1422.0	53.211
1423.0	53.221
1424.0	53.217
1425.0	53.201
1426.0	53.108
1427.0	53.057
1428.0	53.034
1429.0	53.055
1430.0	53.043
1431.0	53.010
1432.0	52.990
1433.0	53.002
1434.0	52.986
1435.0	52.937
1436.0	52.878
1437.0	52.829
1438.0	52.804
1439.0	52.772
1440.0	52.786
1441.0	52.754
1442.0	52.694
1443.0	52.612
1444.0	52.584
1445.0	52.631
1446.0	52.639
1447.0	52.606
1448.0	52.549
1449.0	52.511
1450.0	52.494
1451.0	52.459
1452.0	52.453
1453.0	52.429
1454.0	52.373
1455.0	52.365
1456.0	52.344
1457.0	52.324
1458.0	52.280
1459.0	52.234
1460.0	52.218
1461.0	52.172
1462.0	52.191
1463.0	52.156
1464.0	52.159
1465.0	52.085
1466.0	52.071
1467.0	52.009
1468.0	51.946
1469.0	51.911
1470.0	51.914
1471.0	51.940
1472.0	51.902
1473.0	51.879
1474.0	51.856
1475.0	51.878
1476.0	51.834
1477.0	51.824
1478.0	51.800
1479.0	51.777
1480.0	51.737
1481.0	51.677
1482.0	51.645
1483.0	51.584
1484.0	51.580
1485.0	51.559
1486.0	51.591
1487.0	51.564
1488.0	51.528
1489.0	51.496
1490.0	51.423
1491.0	51.412
1492.0	51.329
1493.0	51.356
1494.0	51.345
1495.0	51.384
1496.0	51.308
1497.0	51.265
1498.0	51.225
1499.0	51.234
1500.0	51.189
1501.0	51.187
1502.0	51.188
1503.0	51.164
1504.0	51.102
1505.0	51.014
1506.0	51.027
1507.0	51.005
1508.0	51.027
1509.0	50.968
1510.0	50.951
1511.0	50.922
1512.0	50.884
1513.0	50.850
1514.0	50.858
1515.0	50.880
1516.0	50.810
1517.0	50.710
1518.0	50.663
1519.0	50.677
1520.0	50.696
1521.0	50.689
1522.0	50.665
1523.0	50.645
1524.0	50.652
1525.0	50.640
1526.0	50.621
1527.0	50.590
1528.0	50.527
1529.0	50.495
1530.0	50.428
1531.0	50.446
1532.0	50.404
1533.0	50.383
1534.0	50.386
1535.0	50.420
1536.0	50.438
1537.0	50.363
1538.0	50.275
1539.0	50.214
1540.0	50.199
1541.0	50.213
1542.0	50.181
1543.0	50.184
1544.0	50.186
1545.0	50.171
1546.0	50.142
1547.0	50.101
1548.0	50.094
1549.0	50.081
1550.0	50.041
1551.0	50.042
1552.0	49.995
1553.0	49.981
1554.0	49.950
1555.0	49.948
1556.0	49.913
1557.0	49.886
1558.0	49.879
1559.0	49.861
1560.0	49.805
1561.0	49.776
1562.0	49.789
1563.0	49.786
1564.0	49.741
1565.0	49.680
1566.0	49.634
1567.0	49.610
1568.0	49.630
1569.0	49.632
1570.0	49.638
1571.0	49.565
1572.0	49.576
1573.0	49.564
1574.0	49.610
1575.0	49.583
1576.0	49.520
1577.0	49.479
1578.0	49.444
1579.0	49.437
1580.0	49.428
1581.0	49.419
1582.0	49.352
1583.0	49.316
1584.0	49.248
1585.0	49.288
1586.0	49.260
1587.0	49.238
1588.0	49.180
1589.0	49.132
1590.0	49.151
1591.0	49.179
1592.0	49.211
1593.0	49.201
1594.0	49.181
1595.0	49.098
1596.0	49.069
1597.0	49.023
1598.0	49.065
1599.0	49.041
1600.0	49.035
