[SUMMARY]
Software Information
Software Name:	UVProbe
Version:	2.43
Mode:	Normal Mode

Data Information
Data is:	Original
Analyst:	
Date/Time:	23/02/2023 18:20:10
Comments:	

Instrument Information
Instrument Name:	SolidSpec3700
Instrument Type:	SolidSpec-3700 Series
Model (S/N):	SolidSpec3700 ( A11085100264CZ )

[METHOD]
[Measurement Properties]
Wavelength Range (nm.):	285,00 to 1600,00
Scan Speed:	Medium
Sampling Interval:	1,0
Auto Sampling Interval:	Disabled
Scan Mode:	Single

[Sample Preparation Properties]
Weight:	
Volume:	
Dilution:	
Path Length:	
Additional Information:	

[Instrument Properties]
Instrument Type:	SolidSpec-3700 Series
Measuring Mode:	Transmittance
Slit Width:	5,0 nm
Time Constant:	1,0 sec.
Source Lamp:	Auto
Light Source Change Wavelength:	282,00 nm
Detector Unit:	Integral Sphere
Detector Change Wavelength:	900,00 nm  1650,00 nm
Grating Change Wavelength:	800,00 nm
S/R Exchange:	Normal
Detector Lock:	Auto
Slit Program:	Fixed
Beam Mode:	Double
Stair Correction:	Disable

[Attachment Properties]
Attachment:	X-Y Stage
Sequence File:	Positions.xys

[Operation]
Threshold:	0,0010000
Points:	4
InterPolate:	Disabled
Average:	Disabled

[DATA]
Wavelength	Data
285.0	49.109
286.0	49.754
287.0	51.041
288.0	52.235
289.0	53.374
290.0	54.219
291.0	55.173
292.0	56.025
293.0	56.847
294.0	57.517
295.0	58.422
296.0	59.217
297.0	60.174
298.0	60.901
299.0	61.483
300.0	62.036
301.0	62.262
302.0	62.726
303.0	62.949
304.0	63.529
305.0	63.860
306.0	64.448
307.0	64.842
308.0	65.039
309.0	65.028
310.0	65.143
311.0	65.537
312.0	65.835
313.0	66.024
314.0	66.069
315.0	66.184
316.0	66.290
317.0	66.435
318.0	66.538
319.0	66.594
320.0	66.853
321.0	66.976
322.0	67.054
323.0	67.025
324.0	67.105
325.0	67.113
326.0	67.043
327.0	67.120
328.0	67.396
329.0	67.771
330.0	67.967
331.0	68.206
332.0	68.361
333.0	68.567
334.0	68.771
335.0	68.974
336.0	69.242
337.0	69.548
338.0	69.751
339.0	69.941
340.0	70.087
341.0	70.423
342.0	70.912
343.0	71.334
344.0	71.610
345.0	71.879
346.0	72.113
347.0	72.340
348.0	72.490
349.0	72.682
350.0	72.912
351.0	73.031
352.0	73.166
353.0	73.309
354.0	73.458
355.0	73.592
356.0	73.624
357.0	73.628
358.0	73.607
359.0	73.666
360.0	73.710
361.0	73.721
362.0	73.741
363.0	73.718
364.0	73.768
365.0	73.672
366.0	73.695
367.0	73.652
368.0	73.575
369.0	73.441
370.0	73.307
371.0	73.254
372.0	73.171
373.0	73.045
374.0	72.956
375.0	72.857
376.0	72.760
377.0	72.718
378.0	72.627
379.0	72.462
380.0	72.210
381.0	71.962
382.0	71.816
383.0	71.726
384.0	71.589
385.0	71.472
386.0	71.328
387.0	71.240
388.0	71.099
389.0	70.906
390.0	70.760
391.0	70.580
392.0	70.475
393.0	70.303
394.0	70.119
395.0	69.917
396.0	69.693
397.0	69.491
398.0	69.316
399.0	69.114
400.0	68.955
401.0	68.752
402.0	68.599
403.0	68.369
404.0	68.147
405.0	67.933
406.0	67.744
407.0	67.522
408.0	67.282
409.0	67.081
410.0	66.872
411.0	66.642
412.0	66.396
413.0	66.113
414.0	65.868
415.0	65.625
416.0	65.446
417.0	65.207
418.0	64.948
419.0	64.736
420.0	64.514
421.0	64.286
422.0	63.987
423.0	63.750
424.0	63.519
425.0	63.264
426.0	63.002
427.0	62.747
428.0	62.474
429.0	62.190
430.0	61.924
431.0	61.647
432.0	61.337
433.0	61.014
434.0	60.698
435.0	60.408
436.0	60.061
437.0	59.759
438.0	59.427
439.0	59.161
440.0	58.836
441.0	58.551
442.0	58.249
443.0	57.943
444.0	57.595
445.0	57.214
446.0	56.889
447.0	56.542
448.0	56.221
449.0	55.835
450.0	55.471
451.0	55.065
452.0	54.679
453.0	54.289
454.0	53.880
455.0	53.491
456.0	53.083
457.0	52.713
458.0	52.304
459.0	51.879
460.0	51.421
461.0	51.007
462.0	50.608
463.0	50.209
464.0	49.799
465.0	49.379
466.0	48.953
467.0	48.522
468.0	48.106
469.0	47.695
470.0	47.275
471.0	46.823
472.0	46.392
473.0	45.938
474.0	45.486
475.0	45.008
476.0	44.550
477.0	44.071
478.0	43.579
479.0	43.074
480.0	42.566
481.0	42.083
482.0	41.587
483.0	41.133
484.0	40.662
485.0	40.175
486.0	39.668
487.0	39.174
488.0	38.700
489.0	38.263
490.0	37.784
491.0	37.351
492.0	36.878
493.0	36.434
494.0	35.929
495.0	35.441
496.0	34.932
497.0	34.445
498.0	33.964
499.0	33.488
500.0	33.034
501.0	32.560
502.0	32.111
503.0	31.632
504.0	31.166
505.0	30.702
506.0	30.253
507.0	29.813
508.0	29.383
509.0	28.958
510.0	28.541
511.0	28.133
512.0	27.723
513.0	27.318
514.0	26.921
515.0	26.544
516.0	26.177
517.0	25.799
518.0	25.419
519.0	25.044
520.0	24.675
521.0	24.336
522.0	23.999
523.0	23.681
524.0	23.327
525.0	22.980
526.0	22.621
527.0	22.286
528.0	21.949
529.0	21.626
530.0	21.282
531.0	20.976
532.0	20.644
533.0	20.356
534.0	20.059
535.0	19.767
536.0	19.489
537.0	19.215
538.0	18.954
539.0	18.685
540.0	18.412
541.0	18.157
542.0	17.914
543.0	17.671
544.0	17.443
545.0	17.210
546.0	16.988
547.0	16.763
548.0	16.545
549.0	16.332
550.0	16.136
551.0	15.936
552.0	15.744
553.0	15.546
554.0	15.364
555.0	15.197
556.0	15.033
557.0	14.885
558.0	14.719
559.0	14.558
560.0	14.397
561.0	14.247
562.0	14.118
563.0	13.981
564.0	13.864
565.0	13.741
566.0	13.623
567.0	13.495
568.0	13.353
569.0	13.230
570.0	13.115
571.0	13.023
572.0	12.910
573.0	12.801
574.0	12.688
575.0	12.582
576.0	12.478
577.0	12.374
578.0	12.273
579.0	12.153
580.0	12.045
581.0	11.936
582.0	11.838
583.0	11.731
584.0	11.626
585.0	11.526
586.0	11.429
587.0	11.337
588.0	11.239
589.0	11.147
590.0	11.058
591.0	10.985
592.0	10.901
593.0	10.826
594.0	10.741
595.0	10.667
596.0	10.599
597.0	10.540
598.0	10.498
599.0	10.445
600.0	10.414
601.0	10.379
602.0	10.345
603.0	10.323
604.0	10.316
605.0	10.326
606.0	10.332
607.0	10.336
608.0	10.346
609.0	10.370
610.0	10.403
611.0	10.439
612.0	10.482
613.0	10.526
614.0	10.590
615.0	10.645
616.0	10.714
617.0	10.794
618.0	10.875
619.0	10.967
620.0	11.052
621.0	11.154
622.0	11.261
623.0	11.353
624.0	11.448
625.0	11.545
626.0	11.652
627.0	11.761
628.0	11.860
629.0	11.956
630.0	12.046
631.0	12.126
632.0	12.211
633.0	12.292
634.0	12.369
635.0	12.439
636.0	12.495
637.0	12.548
638.0	12.591
639.0	12.638
640.0	12.657
641.0	12.697
642.0	12.710
643.0	12.734
644.0	12.739
645.0	12.743
646.0	12.742
647.0	12.731
648.0	12.731
649.0	12.732
650.0	12.732
651.0	12.735
652.0	12.746
653.0	12.760
654.0	12.768
655.0	12.784
656.0	12.801
657.0	12.858
658.0	12.899
659.0	12.963
660.0	13.017
661.0	13.077
662.0	13.161
663.0	13.254
664.0	13.376
665.0	13.489
666.0	13.634
667.0	13.808
668.0	14.018
669.0	14.250
670.0	14.514
671.0	14.807
672.0	15.148
673.0	15.548
674.0	15.984
675.0	16.419
676.0	16.885
677.0	17.390
678.0	17.929
679.0	18.497
680.0	19.119
681.0	19.779
682.0	20.487
683.0	21.224
684.0	22.020
685.0	22.878
686.0	23.758
687.0	24.726
688.0	25.735
689.0	26.831
690.0	27.930
691.0	29.075
692.0	30.269
693.0	31.462
694.0	32.762
695.0	34.070
696.0	35.427
697.0	36.691
698.0	38.009
699.0	39.380
700.0	40.764
701.0	42.115
702.0	43.418
703.0	44.735
704.0	46.000
705.0	47.277
706.0	48.432
707.0	49.620
708.0	50.747
709.0	51.866
710.0	52.913
711.0	53.954
712.0	54.995
713.0	55.906
714.0	56.696
715.0	57.509
716.0	58.339
717.0	59.144
718.0	59.854
719.0	60.513
720.0	61.111
721.0	61.709
722.0	62.245
723.0	62.825
724.0	63.387
725.0	63.919
726.0	64.339
727.0	64.627
728.0	64.987
729.0	65.359
730.0	65.727
731.0	65.971
732.0	66.221
733.0	66.424
734.0	66.741
735.0	66.944
736.0	67.224
737.0	67.421
738.0	67.705
739.0	67.839
740.0	67.997
741.0	68.118
742.0	68.316
743.0	68.433
744.0	68.666
745.0	68.889
746.0	69.035
747.0	69.085
748.0	69.156
749.0	69.288
750.0	69.377
751.0	69.472
752.0	69.616
753.0	69.656
754.0	69.703
755.0	69.647
756.0	69.807
757.0	69.891
758.0	70.072
759.0	70.205
760.0	70.333
761.0	70.482
762.0	70.594
763.0	70.653
764.0	70.717
765.0	70.688
766.0	70.801
767.0	70.837
768.0	70.923
769.0	70.965
770.0	71.070
771.0	71.051
772.0	71.024
773.0	71.029
774.0	71.211
775.0	71.334
776.0	71.331
777.0	71.320
778.0	71.362
779.0	71.498
780.0	71.514
781.0	71.477
782.0	71.401
783.0	71.403
784.0	71.493
785.0	71.667
786.0	71.757
787.0	71.897
788.0	71.851
789.0	72.006
790.0	72.070
791.0	72.131
792.0	72.093
793.0	72.104
794.0	72.068
795.0	72.019
796.0	71.962
797.0	72.099
798.0	72.284
799.0	72.361
800.0	72.385
801.0	72.278
802.0	72.273
803.0	72.309
804.0	72.416
805.0	72.523
806.0	72.588
807.0	72.567
808.0	72.539
809.0	72.527
810.0	72.614
811.0	72.692
812.0	72.702
813.0	72.707
814.0	72.731
815.0	72.785
816.0	72.950
817.0	73.018
818.0	73.042
819.0	72.966
820.0	72.957
821.0	73.026
822.0	73.005
823.0	73.041
824.0	73.049
825.0	73.156
826.0	73.153
827.0	73.197
828.0	73.244
829.0	73.345
830.0	73.432
831.0	73.493
832.0	73.513
833.0	73.476
834.0	73.451
835.0	73.579
836.0	73.686
837.0	73.808
838.0	73.792
839.0	73.848
840.0	73.822
841.0	73.874
842.0	73.774
843.0	73.830
844.0	73.804
845.0	74.011
846.0	73.921
847.0	74.159
848.0	74.186
849.0	74.266
850.0	74.105
851.0	74.076
852.0	74.239
853.0	74.311
854.0	74.237
855.0	74.177
856.0	74.228
857.0	74.336
858.0	74.488
859.0	74.469
860.0	74.687
861.0	74.612
862.0	74.465
863.0	74.459
864.0	74.686
865.0	75.050
866.0	74.891
867.0	74.790
868.0	74.508
869.0	74.653
870.0	74.600
871.0	74.554
872.0	74.362
873.0	74.495
874.0	75.033
875.0	75.532
876.0	75.568
877.0	75.397
878.0	75.472
879.0	75.523
880.0	75.790
881.0	75.696
882.0	75.869
883.0	75.927
884.0	75.611
885.0	75.425
886.0	75.394
887.0	76.142
888.0	75.782
889.0	75.513
890.0	74.973
891.0	75.868
892.0	76.378
893.0	76.864
894.0	76.461
895.0	76.389
896.0	75.263
897.0	75.519
898.0	75.805
899.0	76.656
900.0	76.393
901.0	75.875
902.0	75.639
903.0	75.768
904.0	75.681
905.0	75.846
906.0	75.807
907.0	75.878
908.0	76.019
909.0	76.105
910.0	76.194
911.0	76.190
912.0	76.163
913.0	76.027
914.0	76.078
915.0	76.074
916.0	76.215
917.0	76.222
918.0	76.274
919.0	76.350
920.0	76.332
921.0	76.367
922.0	76.332
923.0	76.266
924.0	76.345
925.0	76.395
926.0	76.483
927.0	76.526
928.0	76.562
929.0	76.559
930.0	76.538
931.0	76.549
932.0	76.711
933.0	76.772
934.0	76.782
935.0	76.642
936.0	76.555
937.0	76.596
938.0	76.673
939.0	76.718
940.0	76.769
941.0	76.822
942.0	76.880
943.0	76.896
944.0	76.961
945.0	76.993
946.0	76.947
947.0	76.973
948.0	77.052
949.0	77.162
950.0	77.158
951.0	77.055
952.0	77.080
953.0	77.122
954.0	77.180
955.0	77.198
956.0	77.161
957.0	77.283
958.0	77.245
959.0	77.306
960.0	77.264
961.0	77.386
962.0	77.468
963.0	77.481
964.0	77.396
965.0	77.330
966.0	77.396
967.0	77.472
968.0	77.512
969.0	77.494
970.0	77.561
971.0	77.610
972.0	77.650
973.0	77.653
974.0	77.648
975.0	77.693
976.0	77.691
977.0	77.703
978.0	77.700
979.0	77.707
980.0	77.734
981.0	77.743
982.0	77.791
983.0	77.821
984.0	77.817
985.0	77.856
986.0	77.860
987.0	77.911
988.0	77.949
989.0	78.015
990.0	78.068
991.0	78.092
992.0	78.054
993.0	78.064
994.0	78.083
995.0	78.178
996.0	78.186
997.0	78.162
998.0	78.159
999.0	78.227
1000.0	78.230
1001.0	78.234
1002.0	78.211
1003.0	78.255
1004.0	78.283
1005.0	78.326
1006.0	78.345
1007.0	78.405
1008.0	78.371
1009.0	78.448
1010.0	78.393
1011.0	78.432
1012.0	78.444
1013.0	78.502
1014.0	78.527
1015.0	78.541
1016.0	78.561
1017.0	78.615
1018.0	78.619
1019.0	78.642
1020.0	78.669
1021.0	78.673
1022.0	78.678
1023.0	78.690
1024.0	78.692
1025.0	78.725
1026.0	78.736
1027.0	78.793
1028.0	78.834
1029.0	78.827
1030.0	78.829
1031.0	78.842
1032.0	78.858
1033.0	78.891
1034.0	78.838
1035.0	78.886
1036.0	78.889
1037.0	78.930
1038.0	78.947
1039.0	78.970
1040.0	78.981
1041.0	78.989
1042.0	78.992
1043.0	79.030
1044.0	79.011
1045.0	79.039
1046.0	79.054
1047.0	79.097
1048.0	79.127
1049.0	79.174
1050.0	79.175
1051.0	79.161
1052.0	79.130
1053.0	79.183
1054.0	79.198
1055.0	79.255
1056.0	79.243
1057.0	79.257
1058.0	79.286
1059.0	79.340
1060.0	79.405
1061.0	79.392
1062.0	79.369
1063.0	79.355
1064.0	79.398
1065.0	79.422
1066.0	79.433
1067.0	79.441
1068.0	79.487
1069.0	79.516
1070.0	79.540
1071.0	79.573
1072.0	79.563
1073.0	79.567
1074.0	79.583
1075.0	79.636
1076.0	79.646
1077.0	79.644
1078.0	79.655
1079.0	79.721
1080.0	79.756
1081.0	79.779
1082.0	79.783
1083.0	79.814
1084.0	79.806
1085.0	79.811
1086.0	79.822
1087.0	79.889
1088.0	79.919
1089.0	79.940
1090.0	79.975
1091.0	80.019
1092.0	80.025
1093.0	80.045
1094.0	80.027
1095.0	80.060
1096.0	80.065
1097.0	80.080
1098.0	80.095
1099.0	80.131
1100.0	80.200
1101.0	80.209
1102.0	80.211
1103.0	80.198
1104.0	80.232
1105.0	80.277
1106.0	80.320
1107.0	80.363
1108.0	80.368
1109.0	80.416
1110.0	80.436
1111.0	80.475
1112.0	80.464
1113.0	80.488
1114.0	80.513
1115.0	80.573
1116.0	80.618
1117.0	80.636
1118.0	80.630
1119.0	80.653
1120.0	80.675
1121.0	80.726
1122.0	80.718
1123.0	80.740
1124.0	80.750
1125.0	80.773
1126.0	80.816
1127.0	80.834
1128.0	80.896
1129.0	80.910
1130.0	80.955
1131.0	80.961
1132.0	81.015
1133.0	81.033
1134.0	81.061
1135.0	81.071
1136.0	81.083
1137.0	81.117
1138.0	81.168
1139.0	81.196
1140.0	81.238
1141.0	81.259
1142.0	81.303
1143.0	81.322
1144.0	81.310
1145.0	81.354
1146.0	81.397
1147.0	81.448
1148.0	81.470
1149.0	81.441
1150.0	81.474
1151.0	81.482
1152.0	81.544
1153.0	81.534
1154.0	81.571
1155.0	81.565
1156.0	81.610
1157.0	81.640
1158.0	81.706
1159.0	81.711
1160.0	81.728
1161.0	81.754
1162.0	81.804
1163.0	81.805
1164.0	81.845
1165.0	81.862
1166.0	81.902
1167.0	81.919
1168.0	81.945
1169.0	81.992
1170.0	82.018
1171.0	82.052
1172.0	82.074
1173.0	82.055
1174.0	82.085
1175.0	82.098
1176.0	82.173
1177.0	82.217
1178.0	82.256
1179.0	82.261
1180.0	82.279
1181.0	82.321
1182.0	82.355
1183.0	82.372
1184.0	82.373
1185.0	82.380
1186.0	82.424
1187.0	82.446
1188.0	82.479
1189.0	82.486
1190.0	82.530
1191.0	82.565
1192.0	82.601
1193.0	82.603
1194.0	82.631
1195.0	82.655
1196.0	82.699
1197.0	82.688
1198.0	82.691
1199.0	82.718
1200.0	82.764
1201.0	82.781
1202.0	82.787
1203.0	82.810
1204.0	82.833
1205.0	82.853
1206.0	82.881
1207.0	82.927
1208.0	82.955
1209.0	82.971
1210.0	82.989
1211.0	83.012
1212.0	83.036
1213.0	83.024
1214.0	83.048
1215.0	83.081
1216.0	83.123
1217.0	83.129
1218.0	83.113
1219.0	83.148
1220.0	83.175
1221.0	83.241
1222.0	83.229
1223.0	83.246
1224.0	83.250
1225.0	83.304
1226.0	83.329
1227.0	83.340
1228.0	83.347
1229.0	83.377
1230.0	83.425
1231.0	83.459
1232.0	83.455
1233.0	83.415
1234.0	83.426
1235.0	83.463
1236.0	83.539
1237.0	83.527
1238.0	83.520
1239.0	83.485
1240.0	83.523
1241.0	83.520
1242.0	83.566
1243.0	83.585
1244.0	83.646
1245.0	83.660
1246.0	83.660
1247.0	83.640
1248.0	83.665
1249.0	83.702
1250.0	83.748
1251.0	83.745
1252.0	83.739
1253.0	83.766
1254.0	83.799
1255.0	83.847
1256.0	83.839
1257.0	83.868
1258.0	83.875
1259.0	83.892
1260.0	83.897
1261.0	83.946
1262.0	83.957
1263.0	83.976
1264.0	83.934
1265.0	83.954
1266.0	83.955
1267.0	83.984
1268.0	84.028
1269.0	84.062
1270.0	84.094
1271.0	84.087
1272.0	84.082
1273.0	84.097
1274.0	84.109
1275.0	84.116
1276.0	84.110
1277.0	84.134
1278.0	84.160
1279.0	84.205
1280.0	84.226
1281.0	84.245
1282.0	84.202
1283.0	84.189
1284.0	84.195
1285.0	84.248
1286.0	84.283
1287.0	84.302
1288.0	84.289
1289.0	84.276
1290.0	84.277
1291.0	84.323
1292.0	84.356
1293.0	84.359
1294.0	84.355
1295.0	84.342
1296.0	84.362
1297.0	84.358
1298.0	84.375
1299.0	84.379
1300.0	84.433
1301.0	84.448
1302.0	84.471
1303.0	84.465
1304.0	84.460
1305.0	84.460
1306.0	84.474
1307.0	84.487
1308.0	84.507
1309.0	84.525
1310.0	84.541
1311.0	84.533
1312.0	84.481
1313.0	84.490
1314.0	84.521
1315.0	84.541
1316.0	84.554
1317.0	84.525
1318.0	84.533
1319.0	84.532
1320.0	84.585
1321.0	84.605
1322.0	84.646
1323.0	84.618
1324.0	84.626
1325.0	84.601
1326.0	84.622
1327.0	84.623
1328.0	84.650
1329.0	84.665
1330.0	84.712
1331.0	84.705
1332.0	84.717
1333.0	84.714
1334.0	84.741
1335.0	84.764
1336.0	84.731
1337.0	84.735
1338.0	84.726
1339.0	84.753
1340.0	84.735
1341.0	84.688
1342.0	84.667
1343.0	84.713
1344.0	84.750
1345.0	84.810
1346.0	84.794
1347.0	84.810
1348.0	84.806
1349.0	84.856
1350.0	84.838
1351.0	84.819
1352.0	84.750
1353.0	84.751
1354.0	84.750
1355.0	84.762
1356.0	84.731
1357.0	84.752
1358.0	84.721
1359.0	84.767
1360.0	84.733
1361.0	84.753
1362.0	84.789
1363.0	84.800
1364.0	84.813
1365.0	84.742
1366.0	84.751
1367.0	84.765
1368.0	84.874
1369.0	84.886
1370.0	84.865
1371.0	84.797
1372.0	84.821
1373.0	84.862
1374.0	84.867
1375.0	84.862
1376.0	84.836
1377.0	84.829
1378.0	84.806
1379.0	84.805
1380.0	84.818
1381.0	84.757
1382.0	84.719
1383.0	84.683
1384.0	84.708
1385.0	84.729
1386.0	84.711
1387.0	84.708
1388.0	84.670
1389.0	84.687
1390.0	84.657
1391.0	84.640
1392.0	84.586
1393.0	84.580
1394.0	84.560
1395.0	84.586
1396.0	84.609
1397.0	84.608
1398.0	84.581
1399.0	84.540
1400.0	84.581
1401.0	84.596
1402.0	84.594
1403.0	84.588
1404.0	84.574
1405.0	84.596
1406.0	84.567
1407.0	84.600
1408.0	84.596
1409.0	84.629
1410.0	84.657
1411.0	84.707
1412.0	84.735
1413.0	84.722
1414.0	84.725
1415.0	84.715
1416.0	84.777
1417.0	84.816
1418.0	84.898
1419.0	84.871
1420.0	84.863
1421.0	84.853
1422.0	84.893
1423.0	84.942
1424.0	84.964
1425.0	84.947
1426.0	84.914
1427.0	84.922
1428.0	84.935
1429.0	84.991
1430.0	85.002
1431.0	85.013
1432.0	85.007
1433.0	85.032
1434.0	85.056
1435.0	85.056
1436.0	85.013
1437.0	85.020
1438.0	85.064
1439.0	85.121
1440.0	85.142
1441.0	85.121
1442.0	85.095
1443.0	85.098
1444.0	85.157
1445.0	85.181
1446.0	85.188
1447.0	85.141
1448.0	85.154
1449.0	85.164
1450.0	85.168
1451.0	85.143
1452.0	85.151
1453.0	85.161
1454.0	85.176
1455.0	85.209
1456.0	85.214
1457.0	85.180
1458.0	85.174
1459.0	85.162
1460.0	85.181
1461.0	85.194
1462.0	85.241
1463.0	85.244
1464.0	85.251
1465.0	85.225
1466.0	85.239
1467.0	85.198
1468.0	85.188
1469.0	85.238
1470.0	85.259
1471.0	85.302
1472.0	85.306
1473.0	85.307
1474.0	85.286
1475.0	85.311
1476.0	85.305
1477.0	85.304
1478.0	85.234
1479.0	85.256
1480.0	85.245
1481.0	85.259
1482.0	85.240
1483.0	85.219
1484.0	85.253
1485.0	85.298
1486.0	85.334
1487.0	85.321
1488.0	85.256
1489.0	85.270
1490.0	85.237
1491.0	85.279
1492.0	85.280
1493.0	85.315
1494.0	85.334
1495.0	85.364
1496.0	85.326
1497.0	85.276
1498.0	85.282
1499.0	85.334
1500.0	85.359
1501.0	85.375
1502.0	85.353
1503.0	85.341
1504.0	85.314
1505.0	85.335
1506.0	85.358
1507.0	85.332
1508.0	85.368
1509.0	85.325
1510.0	85.352
1511.0	85.312
1512.0	85.347
1513.0	85.338
1514.0	85.350
1515.0	85.322
1516.0	85.347
1517.0	85.301
1518.0	85.333
1519.0	85.307
1520.0	85.361
1521.0	85.350
1522.0	85.347
1523.0	85.324
1524.0	85.380
1525.0	85.431
1526.0	85.430
1527.0	85.390
1528.0	85.291
1529.0	85.270
1530.0	85.210
1531.0	85.268
1532.0	85.302
1533.0	85.326
1534.0	85.310
1535.0	85.321
1536.0	85.380
1537.0	85.434
1538.0	85.365
1539.0	85.342
1540.0	85.320
1541.0	85.401
1542.0	85.325
1543.0	85.337
1544.0	85.299
1545.0	85.362
1546.0	85.299
1547.0	85.336
1548.0	85.366
1549.0	85.397
1550.0	85.368
1551.0	85.357
1552.0	85.358
1553.0	85.393
1554.0	85.376
1555.0	85.392
1556.0	85.360
1557.0	85.341
1558.0	85.336
1559.0	85.396
1560.0	85.395
1561.0	85.407
1562.0	85.348
1563.0	85.446
1564.0	85.421
1565.0	85.410
1566.0	85.364
1567.0	85.342
1568.0	85.335
1569.0	85.303
1570.0	85.317
1571.0	85.348
1572.0	85.378
1573.0	85.345
1574.0	85.343
1575.0	85.343
1576.0	85.376
1577.0	85.377
1578.0	85.319
1579.0	85.319
1580.0	85.313
1581.0	85.344
1582.0	85.258
1583.0	85.235
1584.0	85.154
1585.0	85.276
1586.0	85.252
1587.0	85.251
1588.0	85.215
1589.0	85.252
1590.0	85.332
1591.0	85.350
1592.0	85.320
1593.0	85.355
1594.0	85.336
1595.0	85.349
1596.0	85.263
1597.0	85.220
1598.0	85.301
1599.0	85.403
1600.0	85.496
