[SUMMARY]
Software Information
Software Name:	UVProbe
Version:	2.43
Mode:	Normal Mode

Data Information
Data is:	Original
Analyst:	
Date/Time:	24/02/2023 12:52:52
Comments:	

Instrument Information
Instrument Name:	SolidSpec3700
Instrument Type:	SolidSpec-3700 Series
Model (S/N):	SolidSpec3700 ( A11085100264CZ )

[METHOD]
[Measurement Properties]
Wavelength Range (nm.):	285,00 to 1600,00
Scan Speed:	Medium
Sampling Interval:	1,0
Auto Sampling Interval:	Disabled
Scan Mode:	Single

[Sample Preparation Properties]
Weight:	
Volume:	
Dilution:	
Path Length:	
Additional Information:	

[Instrument Properties]
Instrument Type:	SolidSpec-3700 Series
Measuring Mode:	Transmittance
Slit Width:	5,0 nm
Time Constant:	1,0 sec.
Source Lamp:	Auto
Light Source Change Wavelength:	282,00 nm
Detector Unit:	Integral Sphere
Detector Change Wavelength:	900,00 nm  1650,00 nm
Grating Change Wavelength:	800,00 nm
S/R Exchange:	Normal
Detector Lock:	Auto
Slit Program:	Fixed
Beam Mode:	Double
Stair Correction:	Disable

[Attachment Properties]
Attachment:	X-Y Stage
Sequence File:	Positions.xys

[Operation]
Threshold:	0,0010000
Points:	4
InterPolate:	Disabled
Average:	Disabled

[DATA]
Wavelength	Data
285.0	49.789
286.0	50.526
287.0	51.637
288.0	52.562
289.0	53.550
290.0	54.472
291.0	55.511
292.0	56.372
293.0	57.130
294.0	57.903
295.0	58.833
296.0	59.689
297.0	60.312
298.0	60.930
299.0	61.605
300.0	62.294
301.0	62.832
302.0	63.444
303.0	63.645
304.0	64.103
305.0	64.436
306.0	64.865
307.0	65.076
308.0	65.287
309.0	65.557
310.0	65.680
311.0	65.868
312.0	66.060
313.0	66.219
314.0	66.438
315.0	66.454
316.0	66.503
317.0	66.441
318.0	66.492
319.0	66.640
320.0	66.633
321.0	66.767
322.0	66.994
323.0	67.282
324.0	67.472
325.0	67.517
326.0	67.512
327.0	67.626
328.0	67.778
329.0	67.928
330.0	68.177
331.0	68.377
332.0	68.515
333.0	68.675
334.0	68.878
335.0	69.079
336.0	69.216
337.0	69.480
338.0	69.784
339.0	69.990
340.0	70.196
341.0	70.578
342.0	71.024
343.0	71.359
344.0	71.624
345.0	71.860
346.0	72.143
347.0	72.337
348.0	72.654
349.0	72.879
350.0	73.063
351.0	73.101
352.0	73.132
353.0	73.269
354.0	73.455
355.0	73.679
356.0	73.795
357.0	73.786
358.0	73.778
359.0	73.744
360.0	73.801
361.0	73.781
362.0	73.844
363.0	73.822
364.0	73.786
365.0	73.806
366.0	73.795
367.0	73.732
368.0	73.560
369.0	73.448
370.0	73.427
371.0	73.387
372.0	73.274
373.0	73.173
374.0	73.028
375.0	72.891
376.0	72.803
377.0	72.732
378.0	72.655
379.0	72.489
380.0	72.279
381.0	72.204
382.0	72.060
383.0	72.037
384.0	71.900
385.0	71.759
386.0	71.625
387.0	71.463
388.0	71.336
389.0	71.151
390.0	71.034
391.0	70.859
392.0	70.768
393.0	70.553
394.0	70.337
395.0	70.103
396.0	69.923
397.0	69.824
398.0	69.603
399.0	69.426
400.0	69.246
401.0	69.037
402.0	68.858
403.0	68.608
404.0	68.475
405.0	68.250
406.0	68.027
407.0	67.748
408.0	67.549
409.0	67.338
410.0	67.118
411.0	66.813
412.0	66.604
413.0	66.369
414.0	66.168
415.0	65.903
416.0	65.653
417.0	65.424
418.0	65.192
419.0	64.994
420.0	64.727
421.0	64.488
422.0	64.239
423.0	64.028
424.0	63.788
425.0	63.499
426.0	63.229
427.0	62.941
428.0	62.671
429.0	62.399
430.0	62.113
431.0	61.848
432.0	61.539
433.0	61.255
434.0	60.938
435.0	60.674
436.0	60.363
437.0	60.032
438.0	59.733
439.0	59.386
440.0	59.094
441.0	58.751
442.0	58.500
443.0	58.181
444.0	57.849
445.0	57.460
446.0	57.150
447.0	56.800
448.0	56.479
449.0	56.101
450.0	55.723
451.0	55.334
452.0	54.978
453.0	54.579
454.0	54.184
455.0	53.778
456.0	53.412
457.0	53.026
458.0	52.605
459.0	52.216
460.0	51.809
461.0	51.404
462.0	50.961
463.0	50.541
464.0	50.114
465.0	49.705
466.0	49.291
467.0	48.895
468.0	48.484
469.0	48.080
470.0	47.661
471.0	47.207
472.0	46.749
473.0	46.305
474.0	45.861
475.0	45.415
476.0	44.906
477.0	44.435
478.0	43.930
479.0	43.454
480.0	42.971
481.0	42.492
482.0	42.006
483.0	41.531
484.0	41.070
485.0	40.595
486.0	40.103
487.0	39.588
488.0	39.117
489.0	38.678
490.0	38.223
491.0	37.770
492.0	37.282
493.0	36.798
494.0	36.323
495.0	35.836
496.0	35.370
497.0	34.901
498.0	34.444
499.0	33.987
500.0	33.503
501.0	33.003
502.0	32.534
503.0	32.064
504.0	31.602
505.0	31.136
506.0	30.689
507.0	30.266
508.0	29.825
509.0	29.384
510.0	28.972
511.0	28.565
512.0	28.177
513.0	27.768
514.0	27.371
515.0	26.978
516.0	26.600
517.0	26.216
518.0	25.850
519.0	25.478
520.0	25.126
521.0	24.756
522.0	24.402
523.0	24.052
524.0	23.711
525.0	23.377
526.0	23.046
527.0	22.716
528.0	22.377
529.0	22.036
530.0	21.694
531.0	21.367
532.0	21.040
533.0	20.746
534.0	20.444
535.0	20.158
536.0	19.872
537.0	19.592
538.0	19.327
539.0	19.062
540.0	18.804
541.0	18.539
542.0	18.279
543.0	18.031
544.0	17.798
545.0	17.558
546.0	17.334
547.0	17.114
548.0	16.895
549.0	16.669
550.0	16.456
551.0	16.256
552.0	16.061
553.0	15.875
554.0	15.698
555.0	15.525
556.0	15.339
557.0	15.182
558.0	15.027
559.0	14.880
560.0	14.718
561.0	14.568
562.0	14.426
563.0	14.284
564.0	14.148
565.0	14.008
566.0	13.897
567.0	13.778
568.0	13.664
569.0	13.546
570.0	13.427
571.0	13.311
572.0	13.191
573.0	13.089
574.0	12.994
575.0	12.885
576.0	12.775
577.0	12.673
578.0	12.575
579.0	12.473
580.0	12.361
581.0	12.257
582.0	12.155
583.0	12.056
584.0	11.956
585.0	11.851
586.0	11.757
587.0	11.647
588.0	11.554
589.0	11.459
590.0	11.371
591.0	11.276
592.0	11.176
593.0	11.104
594.0	11.031
595.0	10.970
596.0	10.905
597.0	10.855
598.0	10.798
599.0	10.746
600.0	10.696
601.0	10.662
602.0	10.627
603.0	10.591
604.0	10.571
605.0	10.558
606.0	10.567
607.0	10.576
608.0	10.590
609.0	10.601
610.0	10.619
611.0	10.648
612.0	10.687
613.0	10.741
614.0	10.788
615.0	10.849
616.0	10.904
617.0	10.978
618.0	11.050
619.0	11.136
620.0	11.222
621.0	11.318
622.0	11.410
623.0	11.518
624.0	11.621
625.0	11.729
626.0	11.836
627.0	11.934
628.0	12.040
629.0	12.139
630.0	12.244
631.0	12.350
632.0	12.452
633.0	12.537
634.0	12.622
635.0	12.685
636.0	12.747
637.0	12.802
638.0	12.858
639.0	12.927
640.0	12.970
641.0	13.001
642.0	13.036
643.0	13.072
644.0	13.102
645.0	13.129
646.0	13.132
647.0	13.144
648.0	13.128
649.0	13.121
650.0	13.123
651.0	13.132
652.0	13.154
653.0	13.159
654.0	13.161
655.0	13.167
656.0	13.188
657.0	13.230
658.0	13.281
659.0	13.325
660.0	13.377
661.0	13.425
662.0	13.498
663.0	13.570
664.0	13.673
665.0	13.783
666.0	13.923
667.0	14.061
668.0	14.242
669.0	14.451
670.0	14.719
671.0	15.005
672.0	15.329
673.0	15.657
674.0	16.042
675.0	16.441
676.0	16.884
677.0	17.340
678.0	17.847
679.0	18.387
680.0	18.972
681.0	19.593
682.0	20.264
683.0	20.927
684.0	21.689
685.0	22.474
686.0	23.356
687.0	24.239
688.0	25.184
689.0	26.175
690.0	27.209
691.0	28.292
692.0	29.419
693.0	30.581
694.0	31.830
695.0	33.087
696.0	34.351
697.0	35.581
698.0	36.854
699.0	38.122
700.0	39.407
701.0	40.693
702.0	41.964
703.0	43.186
704.0	44.333
705.0	45.561
706.0	46.781
707.0	47.975
708.0	49.074
709.0	50.118
710.0	51.184
711.0	52.141
712.0	53.142
713.0	54.045
714.0	54.945
715.0	55.762
716.0	56.586
717.0	57.384
718.0	58.138
719.0	58.792
720.0	59.428
721.0	60.012
722.0	60.558
723.0	61.089
724.0	61.562
725.0	62.025
726.0	62.508
727.0	62.976
728.0	63.385
729.0	63.667
730.0	63.886
731.0	64.248
732.0	64.560
733.0	64.809
734.0	64.971
735.0	65.193
736.0	65.488
737.0	65.807
738.0	66.093
739.0	66.248
740.0	66.408
741.0	66.489
742.0	66.753
743.0	66.886
744.0	67.069
745.0	67.234
746.0	67.342
747.0	67.532
748.0	67.636
749.0	67.791
750.0	67.788
751.0	67.817
752.0	67.977
753.0	68.153
754.0	68.339
755.0	68.445
756.0	68.531
757.0	68.592
758.0	68.603
759.0	68.714
760.0	68.779
761.0	68.906
762.0	68.892
763.0	68.942
764.0	68.936
765.0	69.118
766.0	69.190
767.0	69.329
768.0	69.343
769.0	69.453
770.0	69.428
771.0	69.637
772.0	69.679
773.0	69.812
774.0	69.609
775.0	69.750
776.0	69.643
777.0	69.904
778.0	69.808
779.0	70.048
780.0	69.990
781.0	70.138
782.0	70.180
783.0	70.230
784.0	70.270
785.0	70.205
786.0	70.310
787.0	70.330
788.0	70.455
789.0	70.404
790.0	70.436
791.0	70.479
792.0	70.528
793.0	70.539
794.0	70.621
795.0	70.753
796.0	70.971
797.0	70.924
798.0	70.895
799.0	70.838
800.0	70.962
801.0	71.053
802.0	71.134
803.0	71.119
804.0	71.077
805.0	70.983
806.0	71.078
807.0	71.126
808.0	71.256
809.0	71.281
810.0	71.380
811.0	71.403
812.0	71.424
813.0	71.458
814.0	71.484
815.0	71.519
816.0	71.547
817.0	71.577
818.0	71.600
819.0	71.648
820.0	71.646
821.0	71.707
822.0	71.793
823.0	71.884
824.0	71.982
825.0	71.986
826.0	72.008
827.0	71.959
828.0	72.043
829.0	72.105
830.0	72.141
831.0	72.075
832.0	72.115
833.0	72.175
834.0	72.254
835.0	72.278
836.0	72.359
837.0	72.351
838.0	72.370
839.0	72.352
840.0	72.500
841.0	72.580
842.0	72.540
843.0	72.492
844.0	72.612
845.0	72.689
846.0	72.800
847.0	72.680
848.0	72.836
849.0	72.862
850.0	72.910
851.0	72.928
852.0	72.959
853.0	73.073
854.0	73.154
855.0	73.174
856.0	73.215
857.0	73.216
858.0	73.453
859.0	73.277
860.0	73.361
861.0	73.249
862.0	73.491
863.0	73.326
864.0	73.537
865.0	73.600
866.0	73.728
867.0	73.901
868.0	74.154
869.0	74.146
870.0	73.840
871.0	73.879
872.0	73.905
873.0	73.954
874.0	73.780
875.0	73.907
876.0	73.461
877.0	73.306
878.0	73.434
879.0	73.840
880.0	73.818
881.0	73.847
882.0	73.531
883.0	74.233
884.0	74.208
885.0	74.398
886.0	73.688
887.0	73.132
888.0	73.200
889.0	73.667
890.0	74.254
891.0	74.683
892.0	74.322
893.0	73.756
894.0	73.588
895.0	73.906
896.0	74.909
897.0	74.938
898.0	74.885
899.0	75.137
900.0	75.178
901.0	75.232
902.0	74.420
903.0	74.333
904.0	74.277
905.0	74.536
906.0	74.742
907.0	74.853
908.0	74.766
909.0	74.632
910.0	74.585
911.0	74.662
912.0	74.875
913.0	74.872
914.0	74.931
915.0	74.762
916.0	74.873
917.0	74.823
918.0	74.943
919.0	75.050
920.0	75.218
921.0	75.315
922.0	75.218
923.0	75.264
924.0	75.260
925.0	75.385
926.0	75.399
927.0	75.356
928.0	75.388
929.0	75.283
930.0	75.376
931.0	75.327
932.0	75.461
933.0	75.490
934.0	75.539
935.0	75.520
936.0	75.540
937.0	75.575
938.0	75.612
939.0	75.602
940.0	75.592
941.0	75.592
942.0	75.638
943.0	75.707
944.0	75.761
945.0	75.762
946.0	75.741
947.0	75.748
948.0	75.816
949.0	75.898
950.0	76.000
951.0	75.950
952.0	75.938
953.0	75.908
954.0	75.995
955.0	76.087
956.0	76.116
957.0	76.163
958.0	76.175
959.0	76.206
960.0	76.238
961.0	76.234
962.0	76.266
963.0	76.290
964.0	76.303
965.0	76.323
966.0	76.371
967.0	76.404
968.0	76.435
969.0	76.442
970.0	76.502
971.0	76.515
972.0	76.539
973.0	76.587
974.0	76.628
975.0	76.658
976.0	76.646
977.0	76.702
978.0	76.720
979.0	76.767
980.0	76.797
981.0	76.813
982.0	76.807
983.0	76.804
984.0	76.854
985.0	76.945
986.0	76.991
987.0	76.983
988.0	76.956
989.0	77.009
990.0	77.080
991.0	77.152
992.0	77.116
993.0	77.114
994.0	77.085
995.0	77.093
996.0	77.113
997.0	77.179
998.0	77.256
999.0	77.291
1000.0	77.271
1001.0	77.341
1002.0	77.391
1003.0	77.438
1004.0	77.413
1005.0	77.422
1006.0	77.462
1007.0	77.490
1008.0	77.523
1009.0	77.538
1010.0	77.548
1011.0	77.571
1012.0	77.638
1013.0	77.661
1014.0	77.675
1015.0	77.669
1016.0	77.722
1017.0	77.752
1018.0	77.779
1019.0	77.790
1020.0	77.806
1021.0	77.794
1022.0	77.796
1023.0	77.816
1024.0	77.858
1025.0	77.876
1026.0	77.908
1027.0	77.941
1028.0	78.001
1029.0	78.013
1030.0	78.033
1031.0	78.066
1032.0	78.115
1033.0	78.180
1034.0	78.202
1035.0	78.194
1036.0	78.170
1037.0	78.176
1038.0	78.215
1039.0	78.245
1040.0	78.254
1041.0	78.283
1042.0	78.325
1043.0	78.367
1044.0	78.416
1045.0	78.432
1046.0	78.457
1047.0	78.453
1048.0	78.449
1049.0	78.481
1050.0	78.483
1051.0	78.509
1052.0	78.511
1053.0	78.564
1054.0	78.611
1055.0	78.642
1056.0	78.654
1057.0	78.677
1058.0	78.686
1059.0	78.741
1060.0	78.777
1061.0	78.785
1062.0	78.772
1063.0	78.754
1064.0	78.800
1065.0	78.803
1066.0	78.849
1067.0	78.880
1068.0	78.916
1069.0	78.912
1070.0	78.941
1071.0	79.004
1072.0	79.074
1073.0	79.084
1074.0	79.094
1075.0	79.111
1076.0	79.151
1077.0	79.181
1078.0	79.190
1079.0	79.209
1080.0	79.217
1081.0	79.240
1082.0	79.289
1083.0	79.342
1084.0	79.381
1085.0	79.401
1086.0	79.416
1087.0	79.428
1088.0	79.448
1089.0	79.492
1090.0	79.517
1091.0	79.537
1092.0	79.546
1093.0	79.624
1094.0	79.670
1095.0	79.720
1096.0	79.732
1097.0	79.756
1098.0	79.762
1099.0	79.760
1100.0	79.783
1101.0	79.801
1102.0	79.864
1103.0	79.904
1104.0	79.908
1105.0	79.923
1106.0	79.915
1107.0	79.982
1108.0	80.009
1109.0	80.046
1110.0	80.067
1111.0	80.095
1112.0	80.137
1113.0	80.169
1114.0	80.236
1115.0	80.277
1116.0	80.327
1117.0	80.294
1118.0	80.322
1119.0	80.303
1120.0	80.358
1121.0	80.399
1122.0	80.452
1123.0	80.490
1124.0	80.486
1125.0	80.523
1126.0	80.532
1127.0	80.590
1128.0	80.605
1129.0	80.646
1130.0	80.652
1131.0	80.680
1132.0	80.710
1133.0	80.758
1134.0	80.798
1135.0	80.819
1136.0	80.844
1137.0	80.877
1138.0	80.907
1139.0	80.935
1140.0	80.968
1141.0	81.002
1142.0	81.015
1143.0	81.030
1144.0	81.044
1145.0	81.098
1146.0	81.137
1147.0	81.155
1148.0	81.183
1149.0	81.192
1150.0	81.248
1151.0	81.297
1152.0	81.353
1153.0	81.396
1154.0	81.399
1155.0	81.420
1156.0	81.429
1157.0	81.461
1158.0	81.478
1159.0	81.526
1160.0	81.550
1161.0	81.597
1162.0	81.629
1163.0	81.638
1164.0	81.677
1165.0	81.704
1166.0	81.786
1167.0	81.804
1168.0	81.829
1169.0	81.833
1170.0	81.887
1171.0	81.927
1172.0	81.965
1173.0	81.967
1174.0	81.984
1175.0	81.987
1176.0	81.996
1177.0	82.040
1178.0	82.086
1179.0	82.139
1180.0	82.162
1181.0	82.182
1182.0	82.225
1183.0	82.250
1184.0	82.286
1185.0	82.290
1186.0	82.298
1187.0	82.319
1188.0	82.355
1189.0	82.381
1190.0	82.415
1191.0	82.423
1192.0	82.465
1193.0	82.465
1194.0	82.519
1195.0	82.529
1196.0	82.578
1197.0	82.595
1198.0	82.623
1199.0	82.628
1200.0	82.647
1201.0	82.667
1202.0	82.717
1203.0	82.721
1204.0	82.772
1205.0	82.807
1206.0	82.851
1207.0	82.856
1208.0	82.887
1209.0	82.906
1210.0	82.953
1211.0	82.997
1212.0	83.007
1213.0	82.989
1214.0	82.965
1215.0	82.994
1216.0	83.031
1217.0	83.060
1218.0	83.099
1219.0	83.122
1220.0	83.142
1221.0	83.141
1222.0	83.154
1223.0	83.174
1224.0	83.226
1225.0	83.260
1226.0	83.281
1227.0	83.320
1228.0	83.340
1229.0	83.361
1230.0	83.355
1231.0	83.372
1232.0	83.401
1233.0	83.404
1234.0	83.418
1235.0	83.415
1236.0	83.439
1237.0	83.465
1238.0	83.495
1239.0	83.520
1240.0	83.539
1241.0	83.551
1242.0	83.603
1243.0	83.630
1244.0	83.629
1245.0	83.625
1246.0	83.618
1247.0	83.676
1248.0	83.697
1249.0	83.724
1250.0	83.722
1251.0	83.734
1252.0	83.782
1253.0	83.797
1254.0	83.805
1255.0	83.824
1256.0	83.826
1257.0	83.836
1258.0	83.840
1259.0	83.879
1260.0	83.896
1261.0	83.892
1262.0	83.896
1263.0	83.920
1264.0	83.937
1265.0	83.982
1266.0	83.982
1267.0	84.007
1268.0	84.015
1269.0	84.029
1270.0	84.042
1271.0	84.048
1272.0	84.068
1273.0	84.097
1274.0	84.104
1275.0	84.126
1276.0	84.119
1277.0	84.109
1278.0	84.104
1279.0	84.132
1280.0	84.170
1281.0	84.188
1282.0	84.184
1283.0	84.201
1284.0	84.199
1285.0	84.195
1286.0	84.190
1287.0	84.241
1288.0	84.259
1289.0	84.258
1290.0	84.242
1291.0	84.273
1292.0	84.305
1293.0	84.318
1294.0	84.318
1295.0	84.328
1296.0	84.345
1297.0	84.314
1298.0	84.334
1299.0	84.322
1300.0	84.373
1301.0	84.385
1302.0	84.408
1303.0	84.399
1304.0	84.425
1305.0	84.442
1306.0	84.464
1307.0	84.464
1308.0	84.486
1309.0	84.474
1310.0	84.439
1311.0	84.409
1312.0	84.451
1313.0	84.503
1314.0	84.539
1315.0	84.539
1316.0	84.549
1317.0	84.564
1318.0	84.558
1319.0	84.543
1320.0	84.579
1321.0	84.631
1322.0	84.685
1323.0	84.674
1324.0	84.686
1325.0	84.693
1326.0	84.698
1327.0	84.676
1328.0	84.667
1329.0	84.655
1330.0	84.668
1331.0	84.670
1332.0	84.687
1333.0	84.680
1334.0	84.703
1335.0	84.709
1336.0	84.726
1337.0	84.727
1338.0	84.761
1339.0	84.778
1340.0	84.803
1341.0	84.770
1342.0	84.763
1343.0	84.724
1344.0	84.739
1345.0	84.749
1346.0	84.764
1347.0	84.768
1348.0	84.764
1349.0	84.711
1350.0	84.730
1351.0	84.694
1352.0	84.706
1353.0	84.629
1354.0	84.581
1355.0	84.580
1356.0	84.598
1357.0	84.655
1358.0	84.703
1359.0	84.700
1360.0	84.689
1361.0	84.621
1362.0	84.606
1363.0	84.634
1364.0	84.650
1365.0	84.676
1366.0	84.688
1367.0	84.659
1368.0	84.631
1369.0	84.559
1370.0	84.589
1371.0	84.626
1372.0	84.685
1373.0	84.718
1374.0	84.737
1375.0	84.739
1376.0	84.762
1377.0	84.803
1378.0	84.802
1379.0	84.748
1380.0	84.672
1381.0	84.633
1382.0	84.619
1383.0	84.563
1384.0	84.562
1385.0	84.543
1386.0	84.544
1387.0	84.504
1388.0	84.493
1389.0	84.512
1390.0	84.552
1391.0	84.558
1392.0	84.556
1393.0	84.513
1394.0	84.482
1395.0	84.494
1396.0	84.446
1397.0	84.386
1398.0	84.297
1399.0	84.304
1400.0	84.329
1401.0	84.360
1402.0	84.355
1403.0	84.381
1404.0	84.383
1405.0	84.433
1406.0	84.439
1407.0	84.460
1408.0	84.445
1409.0	84.488
1410.0	84.534
1411.0	84.621
1412.0	84.639
1413.0	84.603
1414.0	84.595
1415.0	84.566
1416.0	84.628
1417.0	84.656
1418.0	84.700
1419.0	84.669
1420.0	84.671
1421.0	84.719
1422.0	84.766
1423.0	84.745
1424.0	84.712
1425.0	84.708
1426.0	84.765
1427.0	84.795
1428.0	84.815
1429.0	84.753
1430.0	84.771
1431.0	84.798
1432.0	84.904
1433.0	84.869
1434.0	84.884
1435.0	84.822
1436.0	84.826
1437.0	84.863
1438.0	84.873
1439.0	84.874
1440.0	84.842
1441.0	84.873
1442.0	84.849
1443.0	84.843
1444.0	84.830
1445.0	84.927
1446.0	84.901
1447.0	84.908
1448.0	84.881
1449.0	84.885
1450.0	84.904
1451.0	84.890
1452.0	84.964
1453.0	84.956
1454.0	84.977
1455.0	84.937
1456.0	84.946
1457.0	84.946
1458.0	84.942
1459.0	84.902
1460.0	84.921
1461.0	84.913
1462.0	84.971
1463.0	84.958
1464.0	84.987
1465.0	84.962
1466.0	84.967
1467.0	84.970
1468.0	84.973
1469.0	84.942
1470.0	84.922
1471.0	84.920
1472.0	84.933
1473.0	84.927
1474.0	84.938
1475.0	84.989
1476.0	84.989
1477.0	84.978
1478.0	84.910
1479.0	84.902
1480.0	84.912
1481.0	84.920
1482.0	84.943
1483.0	84.936
1484.0	84.975
1485.0	84.970
1486.0	84.984
1487.0	85.021
1488.0	85.036
1489.0	85.013
1490.0	84.951
1491.0	84.885
1492.0	84.854
1493.0	84.844
1494.0	84.893
1495.0	84.892
1496.0	84.853
1497.0	84.886
1498.0	84.898
1499.0	84.964
1500.0	84.938
1501.0	84.901
1502.0	84.879
1503.0	84.914
1504.0	84.993
1505.0	85.004
1506.0	84.969
1507.0	84.920
1508.0	84.952
1509.0	84.987
1510.0	84.977
1511.0	84.916
1512.0	84.906
1513.0	84.913
1514.0	85.031
1515.0	84.926
1516.0	84.967
1517.0	84.866
1518.0	84.915
1519.0	84.887
1520.0	84.920
1521.0	84.980
1522.0	85.021
1523.0	85.031
1524.0	84.970
1525.0	84.940
1526.0	84.846
1527.0	84.841
1528.0	84.780
1529.0	84.827
1530.0	84.809
1531.0	84.835
1532.0	84.780
1533.0	84.826
1534.0	84.814
1535.0	84.885
1536.0	84.867
1537.0	84.852
1538.0	84.868
1539.0	84.871
1540.0	84.912
1541.0	84.813
1542.0	84.796
1543.0	84.792
1544.0	84.830
1545.0	84.819
1546.0	84.807
1547.0	84.843
1548.0	84.869
1549.0	84.883
1550.0	84.840
1551.0	84.799
1552.0	84.773
1553.0	84.781
1554.0	84.771
1555.0	84.752
1556.0	84.699
1557.0	84.685
1558.0	84.707
1559.0	84.695
1560.0	84.702
1561.0	84.683
1562.0	84.694
1563.0	84.730
1564.0	84.746
1565.0	84.807
1566.0	84.753
1567.0	84.734
1568.0	84.744
1569.0	84.769
1570.0	84.773
1571.0	84.745
1572.0	84.758
1573.0	84.742
1574.0	84.722
1575.0	84.664
1576.0	84.674
1577.0	84.652
1578.0	84.716
1579.0	84.709
1580.0	84.715
1581.0	84.669
1582.0	84.673
1583.0	84.650
1584.0	84.616
1585.0	84.593
1586.0	84.649
1587.0	84.678
1588.0	84.702
1589.0	84.696
1590.0	84.741
1591.0	84.680
1592.0	84.620
1593.0	84.524
1594.0	84.540
1595.0	84.587
1596.0	84.675
1597.0	84.725
1598.0	84.720
1599.0	84.636
1600.0	84.563
