[SUMMARY]
Software Information
Software Name:	UVProbe
Version:	2.43
Mode:	Normal Mode

Data Information
Data is:	Original
Analyst:	
Date/Time:	24/02/2023 13:03:12
Comments:	

Instrument Information
Instrument Name:	SolidSpec3700
Instrument Type:	SolidSpec-3700 Series
Model (S/N):	SolidSpec3700 ( A11085100264CZ )

[METHOD]
[Measurement Properties]
Wavelength Range (nm.):	285,00 to 1600,00
Scan Speed:	Medium
Sampling Interval:	1,0
Auto Sampling Interval:	Disabled
Scan Mode:	Single

[Sample Preparation Properties]
Weight:	
Volume:	
Dilution:	
Path Length:	
Additional Information:	

[Instrument Properties]
Instrument Type:	SolidSpec-3700 Series
Measuring Mode:	Transmittance
Slit Width:	5,0 nm
Time Constant:	1,0 sec.
Source Lamp:	Auto
Light Source Change Wavelength:	282,00 nm
Detector Unit:	Integral Sphere
Detector Change Wavelength:	900,00 nm  1650,00 nm
Grating Change Wavelength:	800,00 nm
S/R Exchange:	Normal
Detector Lock:	Auto
Slit Program:	Fixed
Beam Mode:	Double
Stair Correction:	Disable

[Attachment Properties]
Attachment:	X-Y Stage
Sequence File:	Positions.xys

[Operation]
Threshold:	0,0010000
Points:	4
InterPolate:	Disabled
Average:	Disabled

[DATA]
Wavelength	Data
285.0	43.455
286.0	44.055
287.0	44.935
288.0	45.998
289.0	46.889
290.0	47.663
291.0	48.379
292.0	48.914
293.0	49.709
294.0	50.402
295.0	51.297
296.0	52.097
297.0	52.902
298.0	53.465
299.0	53.925
300.0	54.415
301.0	55.130
302.0	55.760
303.0	56.218
304.0	56.739
305.0	57.358
306.0	57.937
307.0	58.268
308.0	58.544
309.0	58.891
310.0	59.125
311.0	59.232
312.0	59.215
313.0	59.357
314.0	59.340
315.0	59.495
316.0	59.354
317.0	59.405
318.0	59.291
319.0	59.234
320.0	59.080
321.0	58.977
322.0	58.961
323.0	58.965
324.0	58.782
325.0	58.652
326.0	58.332
327.0	58.107
328.0	57.812
329.0	57.506
330.0	57.174
331.0	56.841
332.0	56.537
333.0	56.327
334.0	56.033
335.0	55.669
336.0	55.226
337.0	54.912
338.0	54.734
339.0	54.329
340.0	53.855
341.0	53.402
342.0	53.161
343.0	52.852
344.0	52.482
345.0	52.081
346.0	51.637
347.0	51.220
348.0	50.852
349.0	50.433
350.0	49.990
351.0	49.517
352.0	49.118
353.0	48.736
354.0	48.296
355.0	47.845
356.0	47.350
357.0	46.874
358.0	46.423
359.0	45.921
360.0	45.393
361.0	44.885
362.0	44.449
363.0	44.052
364.0	43.623
365.0	43.267
366.0	42.840
367.0	42.470
368.0	42.018
369.0	41.643
370.0	41.300
371.0	40.969
372.0	40.648
373.0	40.321
374.0	40.062
375.0	39.846
376.0	39.706
377.0	39.514
378.0	39.415
379.0	39.323
380.0	39.317
381.0	39.318
382.0	39.352
383.0	39.446
384.0	39.539
385.0	39.655
386.0	39.816
387.0	39.997
388.0	40.196
389.0	40.369
390.0	40.576
391.0	40.771
392.0	41.019
393.0	41.259
394.0	41.444
395.0	41.607
396.0	41.736
397.0	41.890
398.0	42.037
399.0	42.187
400.0	42.364
401.0	42.503
402.0	42.625
403.0	42.708
404.0	42.823
405.0	42.901
406.0	42.978
407.0	43.012
408.0	43.045
409.0	43.093
410.0	43.106
411.0	43.173
412.0	43.244
413.0	43.347
414.0	43.396
415.0	43.390
416.0	43.436
417.0	43.559
418.0	43.664
419.0	43.746
420.0	43.761
421.0	43.855
422.0	43.959
423.0	44.021
424.0	44.042
425.0	43.979
426.0	43.985
427.0	44.006
428.0	44.018
429.0	43.978
430.0	43.888
431.0	43.786
432.0	43.652
433.0	43.507
434.0	43.354
435.0	43.183
436.0	42.992
437.0	42.747
438.0	42.548
439.0	42.299
440.0	42.106
441.0	41.852
442.0	41.653
443.0	41.411
444.0	41.193
445.0	40.929
446.0	40.717
447.0	40.488
448.0	40.285
449.0	40.066
450.0	39.838
451.0	39.636
452.0	39.432
453.0	39.270
454.0	39.114
455.0	38.980
456.0	38.840
457.0	38.711
458.0	38.582
459.0	38.486
460.0	38.388
461.0	38.315
462.0	38.253
463.0	38.214
464.0	38.200
465.0	38.169
466.0	38.164
467.0	38.156
468.0	38.149
469.0	38.150
470.0	38.172
471.0	38.227
472.0	38.267
473.0	38.296
474.0	38.367
475.0	38.442
476.0	38.537
477.0	38.613
478.0	38.710
479.0	38.824
480.0	38.948
481.0	39.097
482.0	39.236
483.0	39.376
484.0	39.539
485.0	39.704
486.0	39.861
487.0	40.021
488.0	40.172
489.0	40.368
490.0	40.543
491.0	40.758
492.0	40.962
493.0	41.168
494.0	41.399
495.0	41.621
496.0	41.867
497.0	42.108
498.0	42.397
499.0	42.684
500.0	42.955
501.0	43.228
502.0	43.516
503.0	43.874
504.0	44.181
505.0	44.526
506.0	44.818
507.0	45.143
508.0	45.432
509.0	45.711
510.0	46.092
511.0	46.437
512.0	46.801
513.0	47.083
514.0	47.421
515.0	47.780
516.0	48.128
517.0	48.445
518.0	48.778
519.0	49.099
520.0	49.451
521.0	49.749
522.0	50.094
523.0	50.442
524.0	50.799
525.0	51.128
526.0	51.484
527.0	51.809
528.0	52.129
529.0	52.402
530.0	52.726
531.0	53.036
532.0	53.308
533.0	53.562
534.0	53.816
535.0	54.059
536.0	54.290
537.0	54.498
538.0	54.723
539.0	54.955
540.0	55.174
541.0	55.324
542.0	55.467
543.0	55.609
544.0	55.788
545.0	55.952
546.0	56.112
547.0	56.286
548.0	56.422
549.0	56.506
550.0	56.545
551.0	56.640
552.0	56.719
553.0	56.830
554.0	56.892
555.0	56.963
556.0	56.977
557.0	56.999
558.0	57.046
559.0	57.076
560.0	57.069
561.0	57.036
562.0	57.018
563.0	56.983
564.0	56.989
565.0	56.973
566.0	56.987
567.0	56.918
568.0	56.858
569.0	56.791
570.0	56.742
571.0	56.683
572.0	56.598
573.0	56.552
574.0	56.491
575.0	56.430
576.0	56.318
577.0	56.226
578.0	56.127
579.0	56.035
580.0	55.933
581.0	55.813
582.0	55.710
583.0	55.628
584.0	55.537
585.0	55.422
586.0	55.292
587.0	55.137
588.0	55.014
589.0	54.895
590.0	54.791
591.0	54.637
592.0	54.477
593.0	54.334
594.0	54.216
595.0	54.062
596.0	53.892
597.0	53.754
598.0	53.640
599.0	53.522
600.0	53.341
601.0	53.164
602.0	52.987
603.0	52.808
604.0	52.619
605.0	52.446
606.0	52.276
607.0	52.135
608.0	51.991
609.0	51.858
610.0	51.687
611.0	51.515
612.0	51.355
613.0	51.178
614.0	51.011
615.0	50.826
616.0	50.679
617.0	50.507
618.0	50.334
619.0	50.162
620.0	49.991
621.0	49.799
622.0	49.632
623.0	49.429
624.0	49.307
625.0	49.123
626.0	48.982
627.0	48.776
628.0	48.594
629.0	48.397
630.0	48.234
631.0	48.066
632.0	47.923
633.0	47.760
634.0	47.595
635.0	47.428
636.0	47.222
637.0	47.025
638.0	46.819
639.0	46.690
640.0	46.560
641.0	46.409
642.0	46.221
643.0	46.043
644.0	45.883
645.0	45.715
646.0	45.531
647.0	45.390
648.0	45.226
649.0	45.073
650.0	44.902
651.0	44.743
652.0	44.586
653.0	44.424
654.0	44.270
655.0	44.141
656.0	43.963
657.0	43.802
658.0	43.614
659.0	43.483
660.0	43.331
661.0	43.185
662.0	43.032
663.0	42.921
664.0	42.803
665.0	42.675
666.0	42.508
667.0	42.377
668.0	42.232
669.0	42.117
670.0	41.948
671.0	41.810
672.0	41.687
673.0	41.588
674.0	41.474
675.0	41.325
676.0	41.211
677.0	41.099
678.0	41.013
679.0	40.877
680.0	40.758
681.0	40.651
682.0	40.550
683.0	40.398
684.0	40.275
685.0	40.169
686.0	40.103
687.0	40.008
688.0	39.909
689.0	39.829
690.0	39.710
691.0	39.638
692.0	39.518
693.0	39.449
694.0	39.313
695.0	39.236
696.0	39.137
697.0	39.112
698.0	39.028
699.0	38.956
700.0	38.811
701.0	38.751
702.0	38.660
703.0	38.574
704.0	38.474
705.0	38.380
706.0	38.347
707.0	38.232
708.0	38.216
709.0	38.147
710.0	38.151
711.0	38.002
712.0	37.932
713.0	37.858
714.0	37.822
715.0	37.778
716.0	37.627
717.0	37.548
718.0	37.407
719.0	37.400
720.0	37.290
721.0	37.216
722.0	37.123
723.0	37.087
724.0	36.991
725.0	36.890
726.0	36.796
727.0	36.813
728.0	36.715
729.0	36.658
730.0	36.524
731.0	36.459
732.0	36.387
733.0	36.290
734.0	36.196
735.0	36.086
736.0	35.978
737.0	35.916
738.0	35.824
739.0	35.815
740.0	35.748
741.0	35.665
742.0	35.572
743.0	35.542
744.0	35.455
745.0	35.335
746.0	35.238
747.0	35.212
748.0	35.089
749.0	34.942
750.0	34.837
751.0	34.812
752.0	34.780
753.0	34.657
754.0	34.643
755.0	34.555
756.0	34.556
757.0	34.424
758.0	34.345
759.0	34.293
760.0	34.237
761.0	34.169
762.0	34.044
763.0	33.978
764.0	33.875
765.0	33.793
766.0	33.732
767.0	33.704
768.0	33.654
769.0	33.598
770.0	33.501
771.0	33.454
772.0	33.367
773.0	33.353
774.0	33.254
775.0	33.228
776.0	33.095
777.0	33.144
778.0	33.040
779.0	33.056
780.0	32.994
781.0	33.012
782.0	32.990
783.0	32.922
784.0	32.902
785.0	32.821
786.0	32.756
787.0	32.671
788.0	32.708
789.0	32.687
790.0	32.573
791.0	32.489
792.0	32.441
793.0	32.408
794.0	32.388
795.0	32.304
796.0	32.378
797.0	32.258
798.0	32.253
799.0	32.187
800.0	32.340
801.0	32.400
802.0	32.450
803.0	32.351
804.0	32.303
805.0	32.237
806.0	32.252
807.0	32.227
808.0	32.195
809.0	32.118
810.0	32.067
811.0	32.003
812.0	31.974
813.0	31.909
814.0	31.892
815.0	31.811
816.0	31.805
817.0	31.743
818.0	31.726
819.0	31.650
820.0	31.582
821.0	31.534
822.0	31.515
823.0	31.510
824.0	31.454
825.0	31.382
826.0	31.311
827.0	31.244
828.0	31.227
829.0	31.196
830.0	31.196
831.0	31.110
832.0	31.070
833.0	31.013
834.0	31.009
835.0	30.938
836.0	30.852
837.0	30.804
838.0	30.746
839.0	30.702
840.0	30.644
841.0	30.632
842.0	30.595
843.0	30.553
844.0	30.579
845.0	30.536
846.0	30.522
847.0	30.365
848.0	30.332
849.0	30.259
850.0	30.214
851.0	30.163
852.0	30.117
853.0	30.147
854.0	30.210
855.0	30.168
856.0	30.173
857.0	30.113
858.0	30.077
859.0	29.920
860.0	29.817
861.0	29.792
862.0	29.691
863.0	29.608
864.0	29.651
865.0	29.739
866.0	29.811
867.0	29.821
868.0	29.976
869.0	29.898
870.0	29.813
871.0	29.553
872.0	29.647
873.0	29.571
874.0	29.641
875.0	29.642
876.0	29.794
877.0	29.918
878.0	30.031
879.0	29.924
880.0	29.915
881.0	29.765
882.0	29.683
883.0	29.679
884.0	29.501
885.0	29.451
886.0	29.331
887.0	29.394
888.0	29.406
889.0	29.549
890.0	29.482
891.0	29.500
892.0	29.073
893.0	29.414
894.0	29.360
895.0	29.905
896.0	30.166
897.0	30.409
898.0	30.420
899.0	30.083
900.0	30.015
901.0	29.709
902.0	29.649
903.0	29.648
904.0	29.831
905.0	29.789
906.0	29.859
907.0	29.830
908.0	29.959
909.0	29.996
910.0	30.007
911.0	30.001
912.0	30.060
913.0	30.160
914.0	30.234
915.0	30.243
916.0	30.261
917.0	30.273
918.0	30.315
919.0	30.390
920.0	30.428
921.0	30.468
922.0	30.417
923.0	30.471
924.0	30.469
925.0	30.508
926.0	30.511
927.0	30.530
928.0	30.557
929.0	30.532
930.0	30.587
931.0	30.594
932.0	30.634
933.0	30.663
934.0	30.720
935.0	30.822
936.0	30.870
937.0	30.902
938.0	30.937
939.0	30.919
940.0	30.970
941.0	30.973
942.0	31.059
943.0	31.059
944.0	31.089
945.0	31.107
946.0	31.176
947.0	31.225
948.0	31.283
949.0	31.298
950.0	31.349
951.0	31.364
952.0	31.401
953.0	31.401
954.0	31.450
955.0	31.506
956.0	31.507
957.0	31.500
958.0	31.542
959.0	31.609
960.0	31.671
961.0	31.682
962.0	31.699
963.0	31.706
964.0	31.729
965.0	31.789
966.0	31.836
967.0	31.862
968.0	31.887
969.0	31.942
970.0	32.002
971.0	32.031
972.0	32.072
973.0	32.101
974.0	32.134
975.0	32.151
976.0	32.190
977.0	32.233
978.0	32.278
979.0	32.286
980.0	32.326
981.0	32.378
982.0	32.414
983.0	32.418
984.0	32.417
985.0	32.491
986.0	32.546
987.0	32.590
988.0	32.624
989.0	32.674
990.0	32.703
991.0	32.695
992.0	32.730
993.0	32.754
994.0	32.799
995.0	32.802
996.0	32.839
997.0	32.891
998.0	32.929
999.0	32.975
1000.0	32.994
1001.0	33.066
1002.0	33.086
1003.0	33.110
1004.0	33.144
1005.0	33.195
1006.0	33.261
1007.0	33.257
1008.0	33.264
1009.0	33.264
1010.0	33.288
1011.0	33.328
1012.0	33.389
1013.0	33.452
1014.0	33.495
1015.0	33.530
1016.0	33.543
1017.0	33.584
1018.0	33.589
1019.0	33.610
1020.0	33.631
1021.0	33.669
1022.0	33.729
1023.0	33.735
1024.0	33.782
1025.0	33.796
1026.0	33.848
1027.0	33.876
1028.0	33.911
1029.0	33.964
1030.0	33.990
1031.0	34.024
1032.0	34.059
1033.0	34.092
1034.0	34.137
1035.0	34.160
1036.0	34.206
1037.0	34.254
1038.0	34.272
1039.0	34.311
1040.0	34.329
1041.0	34.374
1042.0	34.397
1043.0	34.434
1044.0	34.462
1045.0	34.491
1046.0	34.511
1047.0	34.534
1048.0	34.545
1049.0	34.569
1050.0	34.623
1051.0	34.689
1052.0	34.717
1053.0	34.750
1054.0	34.780
1055.0	34.841
1056.0	34.860
1057.0	34.895
1058.0	34.925
1059.0	34.960
1060.0	34.980
1061.0	35.003
1062.0	35.050
1063.0	35.060
1064.0	35.094
1065.0	35.116
1066.0	35.178
1067.0	35.212
1068.0	35.242
1069.0	35.262
1070.0	35.289
1071.0	35.329
1072.0	35.369
1073.0	35.395
1074.0	35.436
1075.0	35.460
1076.0	35.493
1077.0	35.509
1078.0	35.543
1079.0	35.576
1080.0	35.618
1081.0	35.661
1082.0	35.698
1083.0	35.725
1084.0	35.759
1085.0	35.788
1086.0	35.818
1087.0	35.833
1088.0	35.880
1089.0	35.893
1090.0	35.934
1091.0	35.962
1092.0	36.014
1093.0	36.048
1094.0	36.082
1095.0	36.120
1096.0	36.133
1097.0	36.165
1098.0	36.189
1099.0	36.217
1100.0	36.254
1101.0	36.281
1102.0	36.335
1103.0	36.353
1104.0	36.379
1105.0	36.401
1106.0	36.426
1107.0	36.480
1108.0	36.515
1109.0	36.544
1110.0	36.547
1111.0	36.578
1112.0	36.605
1113.0	36.645
1114.0	36.651
1115.0	36.691
1116.0	36.705
1117.0	36.742
1118.0	36.762
1119.0	36.787
1120.0	36.821
1121.0	36.845
1122.0	36.887
1123.0	36.903
1124.0	36.918
1125.0	36.937
1126.0	36.963
1127.0	36.993
1128.0	37.016
1129.0	37.026
1130.0	37.049
1131.0	37.055
1132.0	37.074
1133.0	37.100
1134.0	37.135
1135.0	37.162
1136.0	37.182
1137.0	37.192
1138.0	37.217
1139.0	37.221
1140.0	37.237
1141.0	37.249
1142.0	37.277
1143.0	37.296
1144.0	37.312
1145.0	37.324
1146.0	37.343
1147.0	37.349
1148.0	37.349
1149.0	37.360
1150.0	37.371
1151.0	37.412
1152.0	37.422
1153.0	37.451
1154.0	37.439
1155.0	37.445
1156.0	37.443
1157.0	37.450
1158.0	37.464
1159.0	37.473
1160.0	37.497
1161.0	37.496
1162.0	37.518
1163.0	37.511
1164.0	37.544
1165.0	37.532
1166.0	37.568
1167.0	37.553
1168.0	37.573
1169.0	37.545
1170.0	37.559
1171.0	37.574
1172.0	37.590
1173.0	37.584
1174.0	37.574
1175.0	37.575
1176.0	37.570
1177.0	37.553
1178.0	37.564
1179.0	37.555
1180.0	37.563
1181.0	37.542
1182.0	37.543
1183.0	37.549
1184.0	37.547
1185.0	37.536
1186.0	37.509
1187.0	37.507
1188.0	37.506
1189.0	37.509
1190.0	37.497
1191.0	37.488
1192.0	37.483
1193.0	37.473
1194.0	37.463
1195.0	37.448
1196.0	37.426
1197.0	37.418
1198.0	37.399
1199.0	37.392
1200.0	37.385
1201.0	37.375
1202.0	37.359
1203.0	37.330
1204.0	37.321
1205.0	37.312
1206.0	37.292
1207.0	37.268
1208.0	37.260
1209.0	37.261
1210.0	37.239
1211.0	37.211
1212.0	37.190
1213.0	37.163
1214.0	37.136
1215.0	37.106
1216.0	37.089
1217.0	37.070
1218.0	37.054
1219.0	37.039
1220.0	37.015
1221.0	36.963
1222.0	36.929
1223.0	36.902
1224.0	36.903
1225.0	36.890
1226.0	36.875
1227.0	36.857
1228.0	36.840
1229.0	36.805
1230.0	36.775
1231.0	36.724
1232.0	36.707
1233.0	36.667
1234.0	36.644
1235.0	36.589
1236.0	36.561
1237.0	36.543
1238.0	36.533
1239.0	36.505
1240.0	36.475
1241.0	36.426
1242.0	36.392
1243.0	36.363
1244.0	36.349
1245.0	36.332
1246.0	36.306
1247.0	36.267
1248.0	36.223
1249.0	36.178
1250.0	36.127
1251.0	36.096
1252.0	36.059
1253.0	36.047
1254.0	36.002
1255.0	35.942
1256.0	35.889
1257.0	35.856
1258.0	35.846
1259.0	35.821
1260.0	35.784
1261.0	35.732
1262.0	35.698
1263.0	35.644
1264.0	35.635
1265.0	35.604
1266.0	35.592
1267.0	35.552
1268.0	35.523
1269.0	35.492
1270.0	35.463
1271.0	35.446
1272.0	35.404
1273.0	35.370
1274.0	35.309
1275.0	35.290
1276.0	35.258
1277.0	35.226
1278.0	35.187
1279.0	35.147
1280.0	35.119
1281.0	35.069
1282.0	35.028
1283.0	34.995
1284.0	34.986
1285.0	34.944
1286.0	34.913
1287.0	34.877
1288.0	34.863
1289.0	34.811
1290.0	34.753
1291.0	34.702
1292.0	34.684
1293.0	34.658
1294.0	34.620
1295.0	34.572
1296.0	34.546
1297.0	34.502
1298.0	34.461
1299.0	34.412
1300.0	34.379
1301.0	34.356
1302.0	34.304
1303.0	34.268
1304.0	34.212
1305.0	34.171
1306.0	34.128
1307.0	34.080
1308.0	34.049
1309.0	34.009
1310.0	33.962
1311.0	33.923
1312.0	33.876
1313.0	33.864
1314.0	33.814
1315.0	33.771
1316.0	33.708
1317.0	33.689
1318.0	33.643
1319.0	33.633
1320.0	33.610
1321.0	33.615
1322.0	33.575
1323.0	33.556
1324.0	33.513
1325.0	33.485
1326.0	33.428
1327.0	33.376
1328.0	33.331
1329.0	33.263
1330.0	33.217
1331.0	33.174
1332.0	33.162
1333.0	33.139
1334.0	33.121
1335.0	33.076
1336.0	33.044
1337.0	33.019
1338.0	32.984
1339.0	32.950
1340.0	32.885
1341.0	32.837
1342.0	32.786
1343.0	32.751
1344.0	32.695
1345.0	32.668
1346.0	32.633
1347.0	32.619
1348.0	32.567
1349.0	32.510
1350.0	32.461
1351.0	32.411
1352.0	32.376
1353.0	32.320
1354.0	32.271
1355.0	32.221
1356.0	32.182
1357.0	32.163
1358.0	32.129
1359.0	32.099
1360.0	32.037
1361.0	31.992
1362.0	31.940
1363.0	31.928
1364.0	31.889
1365.0	31.862
1366.0	31.823
1367.0	31.782
1368.0	31.757
1369.0	31.708
1370.0	31.698
1371.0	31.664
1372.0	31.635
1373.0	31.608
1374.0	31.563
1375.0	31.530
1376.0	31.484
1377.0	31.464
1378.0	31.417
1379.0	31.355
1380.0	31.286
1381.0	31.230
1382.0	31.211
1383.0	31.191
1384.0	31.186
1385.0	31.119
1386.0	31.067
1387.0	31.012
1388.0	31.002
1389.0	30.944
1390.0	30.878
1391.0	30.825
1392.0	30.827
1393.0	30.814
1394.0	30.783
1395.0	30.744
1396.0	30.712
1397.0	30.673
1398.0	30.634
1399.0	30.608
1400.0	30.581
1401.0	30.579
1402.0	30.534
1403.0	30.502
1404.0	30.435
1405.0	30.419
1406.0	30.395
1407.0	30.361
1408.0	30.334
1409.0	30.299
1410.0	30.298
1411.0	30.270
1412.0	30.280
1413.0	30.224
1414.0	30.206
1415.0	30.163
1416.0	30.154
1417.0	30.120
1418.0	30.080
1419.0	30.041
1420.0	30.042
1421.0	30.030
1422.0	30.006
1423.0	29.991
1424.0	29.979
1425.0	29.969
1426.0	29.936
1427.0	29.907
1428.0	29.879
1429.0	29.805
1430.0	29.781
1431.0	29.780
1432.0	29.790
1433.0	29.765
1434.0	29.712
1435.0	29.681
1436.0	29.634
1437.0	29.619
1438.0	29.565
1439.0	29.531
1440.0	29.510
1441.0	29.530
1442.0	29.507
1443.0	29.455
1444.0	29.419
1445.0	29.390
1446.0	29.386
1447.0	29.351
1448.0	29.338
1449.0	29.324
1450.0	29.289
1451.0	29.264
1452.0	29.266
1453.0	29.260
1454.0	29.251
1455.0	29.196
1456.0	29.170
1457.0	29.148
1458.0	29.122
1459.0	29.119
1460.0	29.096
1461.0	29.062
1462.0	29.016
1463.0	28.983
1464.0	28.994
1465.0	28.987
1466.0	28.976
1467.0	28.902
1468.0	28.901
1469.0	28.863
1470.0	28.858
1471.0	28.797
1472.0	28.769
1473.0	28.761
1474.0	28.733
1475.0	28.745
1476.0	28.708
1477.0	28.710
1478.0	28.675
1479.0	28.629
1480.0	28.602
1481.0	28.584
1482.0	28.595
1483.0	28.569
1484.0	28.550
1485.0	28.524
1486.0	28.499
1487.0	28.467
1488.0	28.443
1489.0	28.439
1490.0	28.372
1491.0	28.349
1492.0	28.286
1493.0	28.311
1494.0	28.303
1495.0	28.286
1496.0	28.270
1497.0	28.227
1498.0	28.219
1499.0	28.147
1500.0	28.151
1501.0	28.113
1502.0	28.134
1503.0	28.106
1504.0	28.093
1505.0	28.069
1506.0	28.049
1507.0	28.011
1508.0	27.988
1509.0	27.960
1510.0	27.974
1511.0	27.951
1512.0	27.938
1513.0	27.904
1514.0	27.898
1515.0	27.841
1516.0	27.847
1517.0	27.785
1518.0	27.819
1519.0	27.784
1520.0	27.790
1521.0	27.736
1522.0	27.695
1523.0	27.661
1524.0	27.645
1525.0	27.647
1526.0	27.602
1527.0	27.583
1528.0	27.542
1529.0	27.527
1530.0	27.498
1531.0	27.488
1532.0	27.482
1533.0	27.484
1534.0	27.488
1535.0	27.478
1536.0	27.430
1537.0	27.389
1538.0	27.395
1539.0	27.416
1540.0	27.362
1541.0	27.319
1542.0	27.265
1543.0	27.257
1544.0	27.261
1545.0	27.238
1546.0	27.222
1547.0	27.221
1548.0	27.206
1549.0	27.215
1550.0	27.167
1551.0	27.158
1552.0	27.140
1553.0	27.086
1554.0	27.092
1555.0	27.087
1556.0	27.088
1557.0	27.032
1558.0	27.003
1559.0	26.962
1560.0	26.933
1561.0	26.897
1562.0	26.898
1563.0	26.921
1564.0	26.914
1565.0	26.913
1566.0	26.877
1567.0	26.826
1568.0	26.803
1569.0	26.733
1570.0	26.750
1571.0	26.736
1572.0	26.792
1573.0	26.782
1574.0	26.748
1575.0	26.696
1576.0	26.666
1577.0	26.622
1578.0	26.649
1579.0	26.640
1580.0	26.685
1581.0	26.645
1582.0	26.607
1583.0	26.553
1584.0	26.552
1585.0	26.540
1586.0	26.550
1587.0	26.520
1588.0	26.529
1589.0	26.497
1590.0	26.468
1591.0	26.425
1592.0	26.402
1593.0	26.394
1594.0	26.419
1595.0	26.432
1596.0	26.405
1597.0	26.355
1598.0	26.321
1599.0	26.332
1600.0	26.343
