[SUMMARY]
Software Information
Software Name:	UVProbe
Version:	2.43
Mode:	Normal Mode

Data Information
Data is:	Original
Analyst:	
Date/Time:	24/02/2023 12:58:07
Comments:	

Instrument Information
Instrument Name:	SolidSpec3700
Instrument Type:	SolidSpec-3700 Series
Model (S/N):	SolidSpec3700 ( A11085100264CZ )

[METHOD]
[Measurement Properties]
Wavelength Range (nm.):	285,00 to 1600,00
Scan Speed:	Medium
Sampling Interval:	1,0
Auto Sampling Interval:	Disabled
Scan Mode:	Single

[Sample Preparation Properties]
Weight:	
Volume:	
Dilution:	
Path Length:	
Additional Information:	

[Instrument Properties]
Instrument Type:	SolidSpec-3700 Series
Measuring Mode:	Transmittance
Slit Width:	5,0 nm
Time Constant:	1,0 sec.
Source Lamp:	Auto
Light Source Change Wavelength:	282,00 nm
Detector Unit:	Integral Sphere
Detector Change Wavelength:	900,00 nm  1650,00 nm
Grating Change Wavelength:	800,00 nm
S/R Exchange:	Normal
Detector Lock:	Auto
Slit Program:	Fixed
Beam Mode:	Double
Stair Correction:	Disable

[Attachment Properties]
Attachment:	X-Y Stage
Sequence File:	Positions.xys

[Operation]
Threshold:	0,0010000
Points:	4
InterPolate:	Disabled
Average:	Disabled

[DATA]
Wavelength	Data
285.0	47.164
286.0	47.680
287.0	48.631
288.0	49.554
289.0	50.646
290.0	51.355
291.0	52.391
292.0	53.029
293.0	53.797
294.0	54.414
295.0	55.175
296.0	56.006
297.0	56.648
298.0	57.328
299.0	57.983
300.0	58.660
301.0	59.330
302.0	60.021
303.0	60.424
304.0	60.981
305.0	61.364
306.0	61.906
307.0	62.372
308.0	62.857
309.0	62.958
310.0	63.246
311.0	63.447
312.0	63.902
313.0	63.975
314.0	64.068
315.0	64.189
316.0	64.220
317.0	64.159
318.0	64.111
319.0	64.031
320.0	63.980
321.0	63.880
322.0	63.843
323.0	63.814
324.0	63.716
325.0	63.682
326.0	63.441
327.0	63.244
328.0	63.050
329.0	62.922
330.0	62.817
331.0	62.643
332.0	62.434
333.0	62.205
334.0	61.981
335.0	61.877
336.0	61.759
337.0	61.565
338.0	61.418
339.0	61.163
340.0	60.887
341.0	60.652
342.0	60.520
343.0	60.403
344.0	60.178
345.0	59.828
346.0	59.531
347.0	59.218
348.0	59.024
349.0	58.794
350.0	58.629
351.0	58.357
352.0	58.108
353.0	57.882
354.0	57.799
355.0	57.661
356.0	57.514
357.0	57.299
358.0	57.144
359.0	56.942
360.0	56.745
361.0	56.580
362.0	56.416
363.0	56.385
364.0	56.247
365.0	56.196
366.0	56.029
367.0	55.884
368.0	55.669
369.0	55.437
370.0	55.273
371.0	55.126
372.0	54.927
373.0	54.702
374.0	54.514
375.0	54.336
376.0	54.194
377.0	54.046
378.0	53.948
379.0	53.847
380.0	53.700
381.0	53.645
382.0	53.604
383.0	53.660
384.0	53.687
385.0	53.652
386.0	53.665
387.0	53.699
388.0	53.795
389.0	53.835
390.0	53.845
391.0	53.851
392.0	53.893
393.0	53.921
394.0	53.900
395.0	53.859
396.0	53.838
397.0	53.834
398.0	53.766
399.0	53.677
400.0	53.639
401.0	53.536
402.0	53.387
403.0	53.224
404.0	53.124
405.0	53.031
406.0	52.881
407.0	52.711
408.0	52.568
409.0	52.405
410.0	52.253
411.0	52.113
412.0	52.072
413.0	52.018
414.0	51.924
415.0	51.802
416.0	51.701
417.0	51.674
418.0	51.601
419.0	51.538
420.0	51.433
421.0	51.385
422.0	51.360
423.0	51.302
424.0	51.232
425.0	51.091
426.0	50.995
427.0	50.871
428.0	50.754
429.0	50.603
430.0	50.429
431.0	50.271
432.0	50.059
433.0	49.825
434.0	49.561
435.0	49.324
436.0	49.064
437.0	48.773
438.0	48.520
439.0	48.234
440.0	47.950
441.0	47.626
442.0	47.379
443.0	47.146
444.0	46.875
445.0	46.567
446.0	46.281
447.0	46.036
448.0	45.796
449.0	45.540
450.0	45.255
451.0	44.997
452.0	44.763
453.0	44.567
454.0	44.371
455.0	44.171
456.0	44.031
457.0	43.867
458.0	43.721
459.0	43.582
460.0	43.483
461.0	43.386
462.0	43.276
463.0	43.174
464.0	43.123
465.0	43.073
466.0	43.043
467.0	43.027
468.0	43.000
469.0	42.998
470.0	42.970
471.0	42.988
472.0	42.999
473.0	43.040
474.0	43.071
475.0	43.124
476.0	43.166
477.0	43.226
478.0	43.275
479.0	43.360
480.0	43.443
481.0	43.545
482.0	43.635
483.0	43.744
484.0	43.890
485.0	44.016
486.0	44.129
487.0	44.236
488.0	44.390
489.0	44.559
490.0	44.710
491.0	44.875
492.0	45.030
493.0	45.208
494.0	45.390
495.0	45.584
496.0	45.781
497.0	45.994
498.0	46.234
499.0	46.473
500.0	46.700
501.0	46.935
502.0	47.191
503.0	47.437
504.0	47.686
505.0	47.969
506.0	48.269
507.0	48.571
508.0	48.847
509.0	49.116
510.0	49.436
511.0	49.744
512.0	50.067
513.0	50.370
514.0	50.682
515.0	51.001
516.0	51.289
517.0	51.590
518.0	51.913
519.0	52.242
520.0	52.574
521.0	52.890
522.0	53.194
523.0	53.509
524.0	53.800
525.0	54.134
526.0	54.492
527.0	54.830
528.0	55.148
529.0	55.433
530.0	55.780
531.0	56.049
532.0	56.318
533.0	56.561
534.0	56.840
535.0	57.093
536.0	57.327
537.0	57.536
538.0	57.786
539.0	58.028
540.0	58.272
541.0	58.430
542.0	58.617
543.0	58.805
544.0	59.038
545.0	59.193
546.0	59.365
547.0	59.503
548.0	59.688
549.0	59.822
550.0	59.969
551.0	60.059
552.0	60.167
553.0	60.254
554.0	60.357
555.0	60.445
556.0	60.499
557.0	60.568
558.0	60.660
559.0	60.731
560.0	60.774
561.0	60.759
562.0	60.769
563.0	60.776
564.0	60.819
565.0	60.828
566.0	60.864
567.0	60.866
568.0	60.858
569.0	60.826
570.0	60.795
571.0	60.788
572.0	60.773
573.0	60.786
574.0	60.788
575.0	60.753
576.0	60.691
577.0	60.659
578.0	60.616
579.0	60.575
580.0	60.510
581.0	60.419
582.0	60.356
583.0	60.285
584.0	60.227
585.0	60.149
586.0	60.073
587.0	59.984
588.0	59.906
589.0	59.832
590.0	59.774
591.0	59.629
592.0	59.491
593.0	59.361
594.0	59.296
595.0	59.189
596.0	59.095
597.0	59.019
598.0	58.946
599.0	58.857
600.0	58.714
601.0	58.590
602.0	58.462
603.0	58.317
604.0	58.159
605.0	58.008
606.0	57.897
607.0	57.813
608.0	57.704
609.0	57.586
610.0	57.428
611.0	57.304
612.0	57.158
613.0	57.058
614.0	56.903
615.0	56.789
616.0	56.653
617.0	56.522
618.0	56.371
619.0	56.218
620.0	56.104
621.0	55.961
622.0	55.796
623.0	55.637
624.0	55.544
625.0	55.418
626.0	55.298
627.0	55.134
628.0	54.995
629.0	54.813
630.0	54.634
631.0	54.488
632.0	54.376
633.0	54.239
634.0	54.098
635.0	53.935
636.0	53.759
637.0	53.584
638.0	53.439
639.0	53.331
640.0	53.218
641.0	53.051
642.0	52.884
643.0	52.718
644.0	52.543
645.0	52.389
646.0	52.232
647.0	52.129
648.0	51.970
649.0	51.783
650.0	51.603
651.0	51.433
652.0	51.302
653.0	51.135
654.0	50.999
655.0	50.822
656.0	50.685
657.0	50.528
658.0	50.391
659.0	50.263
660.0	50.131
661.0	49.990
662.0	49.822
663.0	49.721
664.0	49.612
665.0	49.498
666.0	49.336
667.0	49.180
668.0	49.049
669.0	48.875
670.0	48.703
671.0	48.522
672.0	48.401
673.0	48.296
674.0	48.194
675.0	48.033
676.0	47.885
677.0	47.729
678.0	47.628
679.0	47.531
680.0	47.382
681.0	47.268
682.0	47.096
683.0	46.975
684.0	46.851
685.0	46.788
686.0	46.705
687.0	46.594
688.0	46.435
689.0	46.265
690.0	46.104
691.0	46.001
692.0	45.877
693.0	45.765
694.0	45.654
695.0	45.578
696.0	45.447
697.0	45.331
698.0	45.211
699.0	45.103
700.0	44.968
701.0	44.886
702.0	44.793
703.0	44.652
704.0	44.490
705.0	44.409
706.0	44.350
707.0	44.253
708.0	44.176
709.0	44.042
710.0	43.945
711.0	43.760
712.0	43.752
713.0	43.686
714.0	43.605
715.0	43.459
716.0	43.329
717.0	43.238
718.0	43.089
719.0	42.982
720.0	42.849
721.0	42.756
722.0	42.683
723.0	42.618
724.0	42.539
725.0	42.418
726.0	42.308
727.0	42.235
728.0	42.139
729.0	42.047
730.0	41.910
731.0	41.838
732.0	41.732
733.0	41.645
734.0	41.468
735.0	41.312
736.0	41.208
737.0	41.125
738.0	41.065
739.0	40.952
740.0	40.881
741.0	40.742
742.0	40.607
743.0	40.513
744.0	40.408
745.0	40.276
746.0	40.133
747.0	40.100
748.0	40.057
749.0	40.001
750.0	39.846
751.0	39.728
752.0	39.650
753.0	39.527
754.0	39.467
755.0	39.332
756.0	39.240
757.0	39.105
758.0	38.952
759.0	38.922
760.0	38.828
761.0	38.818
762.0	38.706
763.0	38.636
764.0	38.523
765.0	38.433
766.0	38.279
767.0	38.169
768.0	38.062
769.0	38.003
770.0	37.941
771.0	37.920
772.0	37.863
773.0	37.783
774.0	37.650
775.0	37.631
776.0	37.523
777.0	37.559
778.0	37.431
779.0	37.437
780.0	37.319
781.0	37.304
782.0	37.282
783.0	37.210
784.0	37.185
785.0	36.995
786.0	37.010
787.0	36.914
788.0	36.951
789.0	36.864
790.0	36.766
791.0	36.690
792.0	36.606
793.0	36.532
794.0	36.483
795.0	36.399
796.0	36.439
797.0	36.397
798.0	36.386
799.0	36.245
800.0	36.437
801.0	36.570
802.0	36.834
803.0	36.753
804.0	36.718
805.0	36.597
806.0	36.576
807.0	36.531
808.0	36.494
809.0	36.417
810.0	36.348
811.0	36.322
812.0	36.235
813.0	36.172
814.0	36.073
815.0	35.994
816.0	35.951
817.0	35.877
818.0	35.851
819.0	35.813
820.0	35.769
821.0	35.720
822.0	35.619
823.0	35.543
824.0	35.455
825.0	35.403
826.0	35.397
827.0	35.351
828.0	35.278
829.0	35.168
830.0	35.118
831.0	35.093
832.0	35.070
833.0	35.041
834.0	34.970
835.0	34.890
836.0	34.776
837.0	34.679
838.0	34.589
839.0	34.509
840.0	34.464
841.0	34.420
842.0	34.349
843.0	34.339
844.0	34.395
845.0	34.359
846.0	34.219
847.0	34.062
848.0	34.033
849.0	34.053
850.0	34.028
851.0	33.970
852.0	33.932
853.0	33.960
854.0	33.924
855.0	33.783
856.0	33.671
857.0	33.654
858.0	33.683
859.0	33.567
860.0	33.537
861.0	33.496
862.0	33.458
863.0	33.375
864.0	33.441
865.0	33.508
866.0	33.465
867.0	33.359
868.0	33.529
869.0	33.355
870.0	33.200
871.0	32.905
872.0	33.203
873.0	33.324
874.0	33.502
875.0	33.273
876.0	33.119
877.0	32.963
878.0	32.936
879.0	33.082
880.0	33.106
881.0	33.104
882.0	33.225
883.0	33.447
884.0	33.223
885.0	33.045
886.0	32.421
887.0	32.728
888.0	32.552
889.0	32.932
890.0	32.699
891.0	32.821
892.0	32.760
893.0	32.918
894.0	32.785
895.0	32.520
896.0	32.825
897.0	32.995
898.0	33.338
899.0	33.396
900.0	33.452
901.0	33.352
902.0	33.013
903.0	33.001
904.0	33.093
905.0	33.171
906.0	33.152
907.0	33.250
908.0	33.294
909.0	33.297
910.0	33.170
911.0	33.123
912.0	33.195
913.0	33.261
914.0	33.377
915.0	33.426
916.0	33.465
917.0	33.430
918.0	33.398
919.0	33.488
920.0	33.503
921.0	33.530
922.0	33.484
923.0	33.495
924.0	33.543
925.0	33.560
926.0	33.632
927.0	33.640
928.0	33.694
929.0	33.690
930.0	33.738
931.0	33.732
932.0	33.788
933.0	33.785
934.0	33.811
935.0	33.831
936.0	33.904
937.0	33.922
938.0	33.896
939.0	33.938
940.0	33.961
941.0	34.006
942.0	33.972
943.0	33.998
944.0	34.052
945.0	34.100
946.0	34.146
947.0	34.160
948.0	34.169
949.0	34.235
950.0	34.309
951.0	34.329
952.0	34.335
953.0	34.335
954.0	34.411
955.0	34.461
956.0	34.513
957.0	34.531
958.0	34.560
959.0	34.582
960.0	34.617
961.0	34.679
962.0	34.724
963.0	34.777
964.0	34.771
965.0	34.814
966.0	34.840
967.0	34.877
968.0	34.902
969.0	34.939
970.0	35.013
971.0	35.056
972.0	35.135
973.0	35.165
974.0	35.221
975.0	35.216
976.0	35.238
977.0	35.278
978.0	35.338
979.0	35.388
980.0	35.415
981.0	35.452
982.0	35.502
983.0	35.561
984.0	35.647
985.0	35.723
986.0	35.742
987.0	35.758
988.0	35.785
989.0	35.886
990.0	35.938
991.0	35.987
992.0	35.993
993.0	36.007
994.0	36.037
995.0	36.066
996.0	36.118
997.0	36.178
998.0	36.243
999.0	36.299
1000.0	36.352
1001.0	36.427
1002.0	36.490
1003.0	36.521
1004.0	36.571
1005.0	36.621
1006.0	36.675
1007.0	36.697
1008.0	36.761
1009.0	36.827
1010.0	36.905
1011.0	36.945
1012.0	37.019
1013.0	37.056
1014.0	37.109
1015.0	37.139
1016.0	37.173
1017.0	37.224
1018.0	37.284
1019.0	37.360
1020.0	37.408
1021.0	37.436
1022.0	37.507
1023.0	37.574
1024.0	37.669
1025.0	37.719
1026.0	37.783
1027.0	37.832
1028.0	37.893
1029.0	37.956
1030.0	38.017
1031.0	38.064
1032.0	38.114
1033.0	38.182
1034.0	38.260
1035.0	38.316
1036.0	38.373
1037.0	38.414
1038.0	38.476
1039.0	38.520
1040.0	38.602
1041.0	38.660
1042.0	38.724
1043.0	38.792
1044.0	38.889
1045.0	38.959
1046.0	39.017
1047.0	39.052
1048.0	39.098
1049.0	39.160
1050.0	39.246
1051.0	39.312
1052.0	39.367
1053.0	39.412
1054.0	39.485
1055.0	39.559
1056.0	39.606
1057.0	39.686
1058.0	39.754
1059.0	39.860
1060.0	39.921
1061.0	39.961
1062.0	40.004
1063.0	40.088
1064.0	40.179
1065.0	40.250
1066.0	40.287
1067.0	40.346
1068.0	40.412
1069.0	40.480
1070.0	40.553
1071.0	40.641
1072.0	40.714
1073.0	40.773
1074.0	40.822
1075.0	40.897
1076.0	40.980
1077.0	41.044
1078.0	41.105
1079.0	41.169
1080.0	41.262
1081.0	41.330
1082.0	41.422
1083.0	41.477
1084.0	41.581
1085.0	41.642
1086.0	41.713
1087.0	41.764
1088.0	41.843
1089.0	41.928
1090.0	41.998
1091.0	42.055
1092.0	42.119
1093.0	42.178
1094.0	42.256
1095.0	42.356
1096.0	42.419
1097.0	42.489
1098.0	42.548
1099.0	42.620
1100.0	42.687
1101.0	42.752
1102.0	42.853
1103.0	42.951
1104.0	43.016
1105.0	43.070
1106.0	43.101
1107.0	43.176
1108.0	43.256
1109.0	43.348
1110.0	43.422
1111.0	43.489
1112.0	43.554
1113.0	43.621
1114.0	43.702
1115.0	43.779
1116.0	43.850
1117.0	43.885
1118.0	43.952
1119.0	44.015
1120.0	44.101
1121.0	44.162
1122.0	44.241
1123.0	44.318
1124.0	44.384
1125.0	44.430
1126.0	44.491
1127.0	44.565
1128.0	44.637
1129.0	44.703
1130.0	44.768
1131.0	44.818
1132.0	44.886
1133.0	44.942
1134.0	45.038
1135.0	45.074
1136.0	45.119
1137.0	45.153
1138.0	45.241
1139.0	45.318
1140.0	45.386
1141.0	45.433
1142.0	45.477
1143.0	45.538
1144.0	45.575
1145.0	45.659
1146.0	45.690
1147.0	45.757
1148.0	45.791
1149.0	45.851
1150.0	45.912
1151.0	45.979
1152.0	46.053
1153.0	46.115
1154.0	46.171
1155.0	46.222
1156.0	46.268
1157.0	46.322
1158.0	46.346
1159.0	46.401
1160.0	46.433
1161.0	46.500
1162.0	46.549
1163.0	46.593
1164.0	46.637
1165.0	46.687
1166.0	46.741
1167.0	46.792
1168.0	46.835
1169.0	46.877
1170.0	46.937
1171.0	46.974
1172.0	47.011
1173.0	47.019
1174.0	47.041
1175.0	47.063
1176.0	47.101
1177.0	47.127
1178.0	47.180
1179.0	47.210
1180.0	47.254
1181.0	47.288
1182.0	47.338
1183.0	47.398
1184.0	47.439
1185.0	47.465
1186.0	47.473
1187.0	47.503
1188.0	47.525
1189.0	47.554
1190.0	47.597
1191.0	47.633
1192.0	47.667
1193.0	47.657
1194.0	47.668
1195.0	47.674
1196.0	47.684
1197.0	47.703
1198.0	47.719
1199.0	47.753
1200.0	47.766
1201.0	47.789
1202.0	47.800
1203.0	47.818
1204.0	47.826
1205.0	47.854
1206.0	47.865
1207.0	47.872
1208.0	47.866
1209.0	47.884
1210.0	47.907
1211.0	47.923
1212.0	47.921
1213.0	47.904
1214.0	47.900
1215.0	47.919
1216.0	47.930
1217.0	47.927
1218.0	47.913
1219.0	47.924
1220.0	47.927
1221.0	47.921
1222.0	47.914
1223.0	47.913
1224.0	47.918
1225.0	47.912
1226.0	47.895
1227.0	47.893
1228.0	47.882
1229.0	47.890
1230.0	47.875
1231.0	47.849
1232.0	47.832
1233.0	47.814
1234.0	47.822
1235.0	47.812
1236.0	47.791
1237.0	47.779
1238.0	47.746
1239.0	47.727
1240.0	47.724
1241.0	47.720
1242.0	47.722
1243.0	47.693
1244.0	47.656
1245.0	47.631
1246.0	47.596
1247.0	47.577
1248.0	47.550
1249.0	47.521
1250.0	47.499
1251.0	47.468
1252.0	47.444
1253.0	47.417
1254.0	47.383
1255.0	47.354
1256.0	47.324
1257.0	47.310
1258.0	47.271
1259.0	47.250
1260.0	47.207
1261.0	47.195
1262.0	47.161
1263.0	47.123
1264.0	47.098
1265.0	47.087
1266.0	47.047
1267.0	47.024
1268.0	46.980
1269.0	46.970
1270.0	46.923
1271.0	46.887
1272.0	46.830
1273.0	46.791
1274.0	46.753
1275.0	46.752
1276.0	46.732
1277.0	46.695
1278.0	46.641
1279.0	46.603
1280.0	46.568
1281.0	46.543
1282.0	46.489
1283.0	46.457
1284.0	46.420
1285.0	46.417
1286.0	46.381
1287.0	46.349
1288.0	46.274
1289.0	46.224
1290.0	46.177
1291.0	46.142
1292.0	46.114
1293.0	46.066
1294.0	46.038
1295.0	45.979
1296.0	45.934
1297.0	45.891
1298.0	45.847
1299.0	45.802
1300.0	45.735
1301.0	45.701
1302.0	45.650
1303.0	45.601
1304.0	45.564
1305.0	45.525
1306.0	45.478
1307.0	45.413
1308.0	45.369
1309.0	45.309
1310.0	45.232
1311.0	45.164
1312.0	45.132
1313.0	45.111
1314.0	45.081
1315.0	45.035
1316.0	44.992
1317.0	44.936
1318.0	44.879
1319.0	44.803
1320.0	44.763
1321.0	44.744
1322.0	44.709
1323.0	44.677
1324.0	44.613
1325.0	44.586
1326.0	44.529
1327.0	44.475
1328.0	44.412
1329.0	44.358
1330.0	44.299
1331.0	44.288
1332.0	44.241
1333.0	44.202
1334.0	44.108
1335.0	44.045
1336.0	43.996
1337.0	43.964
1338.0	43.907
1339.0	43.854
1340.0	43.810
1341.0	43.765
1342.0	43.706
1343.0	43.637
1344.0	43.561
1345.0	43.527
1346.0	43.466
1347.0	43.451
1348.0	43.361
1349.0	43.297
1350.0	43.231
1351.0	43.195
1352.0	43.159
1353.0	43.084
1354.0	42.991
1355.0	42.929
1356.0	42.880
1357.0	42.879
1358.0	42.863
1359.0	42.807
1360.0	42.744
1361.0	42.627
1362.0	42.584
1363.0	42.540
1364.0	42.541
1365.0	42.499
1366.0	42.449
1367.0	42.349
1368.0	42.279
1369.0	42.213
1370.0	42.192
1371.0	42.166
1372.0	42.135
1373.0	42.090
1374.0	42.031
1375.0	41.984
1376.0	41.921
1377.0	41.895
1378.0	41.808
1379.0	41.735
1380.0	41.636
1381.0	41.586
1382.0	41.536
1383.0	41.474
1384.0	41.412
1385.0	41.373
1386.0	41.319
1387.0	41.268
1388.0	41.205
1389.0	41.166
1390.0	41.123
1391.0	41.056
1392.0	41.014
1393.0	40.943
1394.0	40.897
1395.0	40.833
1396.0	40.778
1397.0	40.706
1398.0	40.630
1399.0	40.599
1400.0	40.554
1401.0	40.531
1402.0	40.452
1403.0	40.403
1404.0	40.342
1405.0	40.309
1406.0	40.268
1407.0	40.234
1408.0	40.206
1409.0	40.166
1410.0	40.118
1411.0	40.087
1412.0	40.070
1413.0	40.020
1414.0	39.970
1415.0	39.937
1416.0	39.935
1417.0	39.897
1418.0	39.855
1419.0	39.803
1420.0	39.793
1421.0	39.766
1422.0	39.730
1423.0	39.646
1424.0	39.614
1425.0	39.561
1426.0	39.557
1427.0	39.503
1428.0	39.473
1429.0	39.394
1430.0	39.362
1431.0	39.352
1432.0	39.357
1433.0	39.330
1434.0	39.286
1435.0	39.205
1436.0	39.130
1437.0	39.060
1438.0	39.039
1439.0	39.002
1440.0	38.981
1441.0	38.964
1442.0	38.930
1443.0	38.920
1444.0	38.871
1445.0	38.862
1446.0	38.784
1447.0	38.749
1448.0	38.695
1449.0	38.679
1450.0	38.634
1451.0	38.617
1452.0	38.581
1453.0	38.547
1454.0	38.514
1455.0	38.476
1456.0	38.422
1457.0	38.362
1458.0	38.320
1459.0	38.298
1460.0	38.264
1461.0	38.213
1462.0	38.153
1463.0	38.122
1464.0	38.080
1465.0	38.072
1466.0	38.011
1467.0	37.969
1468.0	37.910
1469.0	37.853
1470.0	37.826
1471.0	37.811
1472.0	37.823
1473.0	37.784
1474.0	37.749
1475.0	37.732
1476.0	37.692
1477.0	37.644
1478.0	37.582
1479.0	37.549
1480.0	37.534
1481.0	37.481
1482.0	37.424
1483.0	37.383
1484.0	37.363
1485.0	37.362
1486.0	37.314
1487.0	37.279
1488.0	37.253
1489.0	37.222
1490.0	37.164
1491.0	37.118
1492.0	37.090
1493.0	37.069
1494.0	37.012
1495.0	36.988
1496.0	36.969
1497.0	36.972
1498.0	36.943
1499.0	36.909
1500.0	36.855
1501.0	36.793
1502.0	36.768
1503.0	36.743
1504.0	36.720
1505.0	36.681
1506.0	36.660
1507.0	36.638
1508.0	36.602
1509.0	36.554
1510.0	36.485
1511.0	36.456
1512.0	36.416
1513.0	36.408
1514.0	36.386
1515.0	36.325
1516.0	36.298
1517.0	36.257
1518.0	36.268
1519.0	36.215
1520.0	36.165
1521.0	36.158
1522.0	36.160
1523.0	36.143
1524.0	36.073
1525.0	36.021
1526.0	35.955
1527.0	35.942
1528.0	35.930
1529.0	35.949
1530.0	35.879
1531.0	35.827
1532.0	35.765
1533.0	35.754
1534.0	35.712
1535.0	35.702
1536.0	35.685
1537.0	35.661
1538.0	35.637
1539.0	35.612
1540.0	35.562
1541.0	35.485
1542.0	35.443
1543.0	35.439
1544.0	35.420
1545.0	35.401
1546.0	35.386
1547.0	35.369
1548.0	35.327
1549.0	35.312
1550.0	35.305
1551.0	35.276
1552.0	35.192
1553.0	35.142
1554.0	35.121
1555.0	35.104
1556.0	35.067
1557.0	35.061
1558.0	35.036
1559.0	35.011
1560.0	35.002
1561.0	34.987
1562.0	34.991
1563.0	34.928
1564.0	34.892
1565.0	34.841
1566.0	34.816
1567.0	34.797
1568.0	34.766
1569.0	34.700
1570.0	34.684
1571.0	34.668
1572.0	34.657
1573.0	34.646
1574.0	34.613
1575.0	34.567
1576.0	34.513
1577.0	34.455
1578.0	34.442
1579.0	34.387
1580.0	34.397
1581.0	34.389
1582.0	34.400
1583.0	34.357
1584.0	34.301
1585.0	34.277
1586.0	34.274
1587.0	34.279
1588.0	34.236
1589.0	34.217
1590.0	34.184
1591.0	34.152
1592.0	34.123
1593.0	34.106
1594.0	34.098
1595.0	34.074
1596.0	34.022
1597.0	34.011
1598.0	33.957
1599.0	33.962
1600.0	33.935
