[SUMMARY]
Software Information
Software Name:	UVProbe
Version:	2.43
Mode:	Normal Mode

Data Information
Data is:	Original
Analyst:	
Date/Time:	16/02/2023 14:45:18
Comments:	

Instrument Information
Instrument Name:	SolidSpec3700
Instrument Type:	SolidSpec-3700 Series
Model (S/N):	SolidSpec3700 ( A11085100264CZ )

[METHOD]
[Measurement Properties]
Wavelength Range (nm.):	300,00 to 1400,00
Scan Speed:	Medium
Sampling Interval:	1,0
Auto Sampling Interval:	Disabled
Scan Mode:	Single

[Sample Preparation Properties]
Weight:	
Volume:	
Dilution:	
Path Length:	
Additional Information:	

[Instrument Properties]
Instrument Type:	SolidSpec-3700 Series
Measuring Mode:	Reflectance
Slit Width:	5,0 nm
Time Constant:	1,0 sec.
Source Lamp:	Auto
Light Source Change Wavelength:	285,00 nm
Detector Unit:	Integral Sphere
Detector Change Wavelength:	900,00 nm  1650,00 nm
Grating Change Wavelength:	800,00 nm
S/R Exchange:	Inverse
Detector Lock:	Auto
Slit Program:	Fixed
Beam Mode:	Double
Stair Correction:	Disable

[Attachment Properties]
Attachment:	X-Y Stage
Sequence File:	Positions.xys

[Operation]
Threshold:	0,0010000
Points:	4
InterPolate:	Disabled
Average:	Disabled

[DATA]
Wavelength	Data
300.0	7.034
301.0	7.025
302.0	7.012
303.0	6.984
304.0	6.953
305.0	6.934
306.0	6.952
307.0	6.963
308.0	6.956
309.0	6.886
310.0	6.915
311.0	6.885
312.0	6.918
313.0	6.895
314.0	6.920
315.0	6.906
316.0	6.869
317.0	6.852
318.0	6.848
319.0	6.837
320.0	6.784
321.0	6.755
322.0	6.738
323.0	6.764
324.0	6.762
325.0	6.742
326.0	6.741
327.0	6.702
328.0	6.697
329.0	6.673
330.0	6.683
331.0	6.680
332.0	6.689
333.0	6.688
334.0	6.654
335.0	6.632
336.0	6.591
337.0	6.583
338.0	6.553
339.0	6.581
340.0	6.575
341.0	6.599
342.0	6.581
343.0	6.578
344.0	6.539
345.0	6.504
346.0	6.498
347.0	6.476
348.0	6.448
349.0	6.413
350.0	6.385
351.0	6.378
352.0	6.354
353.0	6.358
354.0	6.357
355.0	6.336
356.0	6.326
357.0	6.322
358.0	6.327
359.0	6.323
360.0	6.299
361.0	6.279
362.0	6.233
363.0	6.214
364.0	6.203
365.0	6.209
366.0	6.188
367.0	6.178
368.0	6.158
369.0	6.156
370.0	6.140
371.0	6.120
372.0	6.116
373.0	6.111
374.0	6.103
375.0	6.070
376.0	6.045
377.0	6.034
378.0	6.036
379.0	6.017
380.0	5.995
381.0	5.980
382.0	5.981
383.0	5.975
384.0	5.953
385.0	5.931
386.0	5.914
387.0	5.904
388.0	5.891
389.0	5.885
390.0	5.880
391.0	5.882
392.0	5.894
393.0	5.887
394.0	5.879
395.0	5.863
396.0	5.857
397.0	5.857
398.0	5.848
399.0	5.840
400.0	5.838
401.0	5.823
402.0	5.814
403.0	5.804
404.0	5.800
405.0	5.804
406.0	5.798
407.0	5.793
408.0	5.794
409.0	5.782
410.0	5.781
411.0	5.763
412.0	5.757
413.0	5.742
414.0	5.736
415.0	5.729
416.0	5.729
417.0	5.731
418.0	5.725
419.0	5.721
420.0	5.718
421.0	5.710
422.0	5.703
423.0	5.706
424.0	5.717
425.0	5.712
426.0	5.689
427.0	5.680
428.0	5.680
429.0	5.685
430.0	5.682
431.0	5.689
432.0	5.689
433.0	5.692
434.0	5.687
435.0	5.687
436.0	5.686
437.0	5.685
438.0	5.684
439.0	5.695
440.0	5.709
441.0	5.715
442.0	5.713
443.0	5.712
444.0	5.727
445.0	5.739
446.0	5.747
447.0	5.751
448.0	5.758
449.0	5.760
450.0	5.775
451.0	5.785
452.0	5.807
453.0	5.820
454.0	5.831
455.0	5.839
456.0	5.841
457.0	5.856
458.0	5.877
459.0	5.888
460.0	5.905
461.0	5.916
462.0	5.943
463.0	5.958
464.0	5.983
465.0	6.004
466.0	6.032
467.0	6.053
468.0	6.071
469.0	6.085
470.0	6.096
471.0	6.120
472.0	6.149
473.0	6.175
474.0	6.199
475.0	6.229
476.0	6.263
477.0	6.298
478.0	6.318
479.0	6.350
480.0	6.369
481.0	6.406
482.0	6.428
483.0	6.464
484.0	6.490
485.0	6.520
486.0	6.558
487.0	6.603
488.0	6.644
489.0	6.675
490.0	6.704
491.0	6.735
492.0	6.763
493.0	6.803
494.0	6.839
495.0	6.880
496.0	6.916
497.0	6.963
498.0	7.010
499.0	7.049
500.0	7.084
501.0	7.114
502.0	7.157
503.0	7.193
504.0	7.238
505.0	7.284
506.0	7.326
507.0	7.369
508.0	7.408
509.0	7.458
510.0	7.503
511.0	7.548
512.0	7.599
513.0	7.646
514.0	7.688
515.0	7.733
516.0	7.779
517.0	7.824
518.0	7.863
519.0	7.907
520.0	7.964
521.0	8.024
522.0	8.067
523.0	8.113
524.0	8.158
525.0	8.209
526.0	8.252
527.0	8.293
528.0	8.341
529.0	8.396
530.0	8.445
531.0	8.506
532.0	8.556
533.0	8.615
534.0	8.662
535.0	8.710
536.0	8.758
537.0	8.811
538.0	8.859
539.0	8.906
540.0	8.957
541.0	9.010
542.0	9.063
543.0	9.119
544.0	9.166
545.0	9.218
546.0	9.256
547.0	9.301
548.0	9.348
549.0	9.399
550.0	9.449
551.0	9.504
552.0	9.561
553.0	9.603
554.0	9.640
555.0	9.671
556.0	9.732
557.0	9.788
558.0	9.845
559.0	9.883
560.0	9.925
561.0	9.978
562.0	10.025
563.0	10.061
564.0	10.108
565.0	10.151
566.0	10.202
567.0	10.236
568.0	10.279
569.0	10.310
570.0	10.345
571.0	10.391
572.0	10.445
573.0	10.487
574.0	10.523
575.0	10.562
576.0	10.600
577.0	10.632
578.0	10.669
579.0	10.705
580.0	10.761
581.0	10.815
582.0	10.858
583.0	10.899
584.0	10.925
585.0	10.966
586.0	10.983
587.0	11.015
588.0	11.054
589.0	11.104
590.0	11.154
591.0	11.187
592.0	11.220
593.0	11.241
594.0	11.277
595.0	11.299
596.0	11.348
597.0	11.373
598.0	11.416
599.0	11.431
600.0	11.458
601.0	11.482
602.0	11.515
603.0	11.547
604.0	11.569
605.0	11.593
606.0	11.626
607.0	11.662
608.0	11.686
609.0	11.714
610.0	11.737
611.0	11.762
612.0	11.767
613.0	11.785
614.0	11.794
615.0	11.828
616.0	11.844
617.0	11.882
618.0	11.895
619.0	11.919
620.0	11.940
621.0	11.954
622.0	11.970
623.0	11.987
624.0	12.012
625.0	12.017
626.0	12.028
627.0	12.045
628.0	12.080
629.0	12.084
630.0	12.100
631.0	12.119
632.0	12.139
633.0	12.147
634.0	12.160
635.0	12.174
636.0	12.190
637.0	12.181
638.0	12.201
639.0	12.208
640.0	12.231
641.0	12.234
642.0	12.236
643.0	12.235
644.0	12.236
645.0	12.254
646.0	12.267
647.0	12.269
648.0	12.252
649.0	12.241
650.0	12.247
651.0	12.243
652.0	12.231
653.0	12.222
654.0	12.213
655.0	12.209
656.0	12.201
657.0	12.197
658.0	12.185
659.0	12.164
660.0	12.160
661.0	12.162
662.0	12.163
663.0	12.148
664.0	12.126
665.0	12.116
666.0	12.109
667.0	12.113
668.0	12.101
669.0	12.085
670.0	12.063
671.0	12.045
672.0	12.026
673.0	12.020
674.0	11.995
675.0	12.011
676.0	12.002
677.0	12.001
678.0	11.974
679.0	11.961
680.0	11.946
681.0	11.944
682.0	11.928
683.0	11.914
684.0	11.879
685.0	11.845
686.0	11.827
687.0	11.804
688.0	11.786
689.0	11.785
690.0	11.776
691.0	11.791
692.0	11.776
693.0	11.780
694.0	11.767
695.0	11.768
696.0	11.745
697.0	11.741
698.0	11.716
699.0	11.711
700.0	11.697
701.0	11.701
702.0	11.690
703.0	11.698
704.0	11.682
705.0	11.683
706.0	11.668
707.0	11.687
708.0	11.694
709.0	11.691
710.0	11.661
711.0	11.643
712.0	11.651
713.0	11.678
714.0	11.686
715.0	11.677
716.0	11.646
717.0	11.649
718.0	11.631
719.0	11.651
720.0	11.652
721.0	11.662
722.0	11.682
723.0	11.686
724.0	11.689
725.0	11.670
726.0	11.656
727.0	11.680
728.0	11.686
729.0	11.732
730.0	11.741
731.0	11.752
732.0	11.734
733.0	11.732
734.0	11.733
735.0	11.729
736.0	11.727
737.0	11.717
738.0	11.774
739.0	11.804
740.0	11.819
741.0	11.810
742.0	11.808
743.0	11.845
744.0	11.828
745.0	11.820
746.0	11.800
747.0	11.813
748.0	11.823
749.0	11.825
750.0	11.808
751.0	11.833
752.0	11.815
753.0	11.845
754.0	11.833
755.0	11.892
756.0	11.913
757.0	11.952
758.0	11.958
759.0	11.975
760.0	11.991
761.0	11.998
762.0	11.974
763.0	11.945
764.0	11.946
765.0	11.982
766.0	11.996
767.0	12.029
768.0	12.020
769.0	12.031
770.0	12.013
771.0	12.052
772.0	12.046
773.0	12.054
774.0	12.032
775.0	12.049
776.0	12.072
777.0	12.084
778.0	12.135
779.0	12.139
780.0	12.164
781.0	12.149
782.0	12.163
783.0	12.145
784.0	12.144
785.0	12.144
786.0	12.190
787.0	12.207
788.0	12.195
789.0	12.207
790.0	12.215
791.0	12.268
792.0	12.257
793.0	12.258
794.0	12.248
795.0	12.283
796.0	12.302
797.0	12.294
798.0	12.283
799.0	12.304
800.0	12.354
801.0	12.355
802.0	12.367
803.0	12.369
804.0	12.405
805.0	12.401
806.0	12.420
807.0	12.423
808.0	12.436
809.0	12.438
810.0	12.459
811.0	12.495
812.0	12.504
813.0	12.489
814.0	12.479
815.0	12.487
816.0	12.506
817.0	12.496
818.0	12.500
819.0	12.487
820.0	12.515
821.0	12.525
822.0	12.550
823.0	12.526
824.0	12.536
825.0	12.542
826.0	12.545
827.0	12.563
828.0	12.567
829.0	12.594
830.0	12.592
831.0	12.612
832.0	12.623
833.0	12.601
834.0	12.578
835.0	12.587
836.0	12.603
837.0	12.614
838.0	12.594
839.0	12.602
840.0	12.611
841.0	12.616
842.0	12.620
843.0	12.611
844.0	12.629
845.0	12.637
846.0	12.613
847.0	12.588
848.0	12.600
849.0	12.606
850.0	12.605
851.0	12.617
852.0	12.669
853.0	12.691
854.0	12.638
855.0	12.626
856.0	12.664
857.0	12.725
858.0	12.704
859.0	12.666
860.0	12.625
861.0	12.664
862.0	12.675
863.0	12.595
864.0	12.580
865.0	12.627
866.0	12.788
867.0	12.798
868.0	12.778
869.0	12.672
870.0	12.648
871.0	12.574
872.0	12.486
873.0	12.419
874.0	12.371
875.0	12.535
876.0	12.566
877.0	12.728
878.0	12.531
879.0	12.575
880.0	12.509
881.0	12.644
882.0	12.611
883.0	12.593
884.0	12.594
885.0	12.690
886.0	12.771
887.0	12.878
888.0	12.794
889.0	12.763
890.0	12.673
891.0	12.600
892.0	12.490
893.0	12.510
894.0	12.655
895.0	12.742
896.0	12.734
897.0	12.645
898.0	12.647
899.0	12.765
900.0	13.018
901.0	13.181
902.0	13.341
903.0	13.280
904.0	13.241
905.0	13.251
906.0	13.351
907.0	13.233
908.0	13.170
909.0	13.025
910.0	13.198
911.0	13.134
912.0	13.332
913.0	13.341
914.0	13.362
915.0	13.252
916.0	13.356
917.0	13.433
918.0	13.394
919.0	13.223
920.0	13.142
921.0	13.199
922.0	13.291
923.0	13.275
924.0	13.151
925.0	13.156
926.0	13.236
927.0	13.302
928.0	13.260
929.0	13.240
930.0	13.308
931.0	13.328
932.0	13.276
933.0	13.212
934.0	13.234
935.0	13.248
936.0	13.271
937.0	13.238
938.0	13.283
939.0	13.240
940.0	13.276
941.0	13.259
942.0	13.357
943.0	13.323
944.0	13.330
945.0	13.258
946.0	13.260
947.0	13.265
948.0	13.302
949.0	13.302
950.0	13.223
951.0	13.218
952.0	13.176
953.0	13.230
954.0	13.196
955.0	13.197
956.0	13.181
957.0	13.213
958.0	13.255
959.0	13.243
960.0	13.232
961.0	13.168
962.0	13.157
963.0	13.169
964.0	13.209
965.0	13.210
966.0	13.195
967.0	13.189
968.0	13.201
969.0	13.167
970.0	13.169
971.0	13.164
972.0	13.198
973.0	13.190
974.0	13.168
975.0	13.129
976.0	13.096
977.0	13.074
978.0	13.106
979.0	13.124
980.0	13.163
981.0	13.144
982.0	13.126
983.0	13.121
984.0	13.107
985.0	13.131
986.0	13.088
987.0	13.055
988.0	12.987
989.0	12.980
990.0	12.996
991.0	13.009
992.0	12.995
993.0	12.995
994.0	12.990
995.0	12.989
996.0	12.977
997.0	12.960
998.0	12.961
999.0	12.939
1000.0	12.956
1001.0	12.951
1002.0	12.932
1003.0	12.889
1004.0	12.836
1005.0	12.830
1006.0	12.857
1007.0	12.885
1008.0	12.895
1009.0	12.873
1010.0	12.869
1011.0	12.840
1012.0	12.805
1013.0	12.777
1014.0	12.774
1015.0	12.777
1016.0	12.733
1017.0	12.709
1018.0	12.686
1019.0	12.700
1020.0	12.705
1021.0	12.699
1022.0	12.702
1023.0	12.659
1024.0	12.636
1025.0	12.599
1026.0	12.592
1027.0	12.586
1028.0	12.565
1029.0	12.550
1030.0	12.534
1031.0	12.532
1032.0	12.500
1033.0	12.471
1034.0	12.463
1035.0	12.470
1036.0	12.468
1037.0	12.451
1038.0	12.425
1039.0	12.415
1040.0	12.382
1041.0	12.384
1042.0	12.388
1043.0	12.409
1044.0	12.382
1045.0	12.352
1046.0	12.288
1047.0	12.272
1048.0	12.230
1049.0	12.227
1050.0	12.218
1051.0	12.190
1052.0	12.195
1053.0	12.170
1054.0	12.168
1055.0	12.137
1056.0	12.123
1057.0	12.103
1058.0	12.067
1059.0	12.051
1060.0	12.056
1061.0	12.058
1062.0	12.028
1063.0	11.984
1064.0	11.957
1065.0	11.940
1066.0	11.936
1067.0	11.921
1068.0	11.919
1069.0	11.879
1070.0	11.866
1071.0	11.829
1072.0	11.829
1073.0	11.822
1074.0	11.814
1075.0	11.827
1076.0	11.791
1077.0	11.767
1078.0	11.726
1079.0	11.690
1080.0	11.667
1081.0	11.640
1082.0	11.617
1083.0	11.608
1084.0	11.577
1085.0	11.562
1086.0	11.521
1087.0	11.523
1088.0	11.521
1089.0	11.514
1090.0	11.480
1091.0	11.466
1092.0	11.441
1093.0	11.431
1094.0	11.400
1095.0	11.376
1096.0	11.361
1097.0	11.343
1098.0	11.330
1099.0	11.311
1100.0	11.275
1101.0	11.243
1102.0	11.218
1103.0	11.207
1104.0	11.205
1105.0	11.179
1106.0	11.157
1107.0	11.136
1108.0	11.123
1109.0	11.125
1110.0	11.116
1111.0	11.098
1112.0	11.065
1113.0	11.015
1114.0	10.991
1115.0	10.970
1116.0	10.970
1117.0	10.944
1118.0	10.937
1119.0	10.917
1120.0	10.896
1121.0	10.881
1122.0	10.864
1123.0	10.847
1124.0	10.800
1125.0	10.774
1126.0	10.761
1127.0	10.757
1128.0	10.741
1129.0	10.713
1130.0	10.702
1131.0	10.671
1132.0	10.660
1133.0	10.655
1134.0	10.663
1135.0	10.675
1136.0	10.654
1137.0	10.626
1138.0	10.583
1139.0	10.562
1140.0	10.542
1141.0	10.517
1142.0	10.493
1143.0	10.487
1144.0	10.495
1145.0	10.472
1146.0	10.452
1147.0	10.425
1148.0	10.429
1149.0	10.415
1150.0	10.400
1151.0	10.374
1152.0	10.356
1153.0	10.341
1154.0	10.317
1155.0	10.288
1156.0	10.268
1157.0	10.258
1158.0	10.255
1159.0	10.229
1160.0	10.205
1161.0	10.198
1162.0	10.190
1163.0	10.169
1164.0	10.135
1165.0	10.130
1166.0	10.131
1167.0	10.121
1168.0	10.096
1169.0	10.065
1170.0	10.045
1171.0	10.015
1172.0	9.986
1173.0	9.985
1174.0	9.979
1175.0	9.993
1176.0	9.968
1177.0	9.956
1178.0	9.923
1179.0	9.899
1180.0	9.875
1181.0	9.876
1182.0	9.879
1183.0	9.877
1184.0	9.861
1185.0	9.823
1186.0	9.807
1187.0	9.777
1188.0	9.769
1189.0	9.744
1190.0	9.734
1191.0	9.705
1192.0	9.707
1193.0	9.693
1194.0	9.688
1195.0	9.653
1196.0	9.644
1197.0	9.642
1198.0	9.637
1199.0	9.625
1200.0	9.619
1201.0	9.629
1202.0	9.609
1203.0	9.582
1204.0	9.536
1205.0	9.535
1206.0	9.526
1207.0	9.527
1208.0	9.505
1209.0	9.488
1210.0	9.467
1211.0	9.440
1212.0	9.451
1213.0	9.438
1214.0	9.427
1215.0	9.387
1216.0	9.379
1217.0	9.379
1218.0	9.380
1219.0	9.348
1220.0	9.345
1221.0	9.327
1222.0	9.347
1223.0	9.327
1224.0	9.296
1225.0	9.269
1226.0	9.271
1227.0	9.283
1228.0	9.292
1229.0	9.268
1230.0	9.253
1231.0	9.214
1232.0	9.195
1233.0	9.175
1234.0	9.174
1235.0	9.166
1236.0	9.152
1237.0	9.153
1238.0	9.137
1239.0	9.135
1240.0	9.102
1241.0	9.126
1242.0	9.111
1243.0	9.115
1244.0	9.087
1245.0	9.071
1246.0	9.037
1247.0	9.032
1248.0	9.030
1249.0	9.037
1250.0	9.020
1251.0	9.023
1252.0	9.030
1253.0	9.032
1254.0	9.011
1255.0	8.997
1256.0	8.980
1257.0	8.980
1258.0	8.971
1259.0	8.965
1260.0	8.951
1261.0	8.933
1262.0	8.922
1263.0	8.920
1264.0	8.921
1265.0	8.906
1266.0	8.899
1267.0	8.898
1268.0	8.890
1269.0	8.878
1270.0	8.871
1271.0	8.867
1272.0	8.858
1273.0	8.858
1274.0	8.845
1275.0	8.854
1276.0	8.836
1277.0	8.841
1278.0	8.842
1279.0	8.850
1280.0	8.840
1281.0	8.825
1282.0	8.805
1283.0	8.814
1284.0	8.806
1285.0	8.813
1286.0	8.799
1287.0	8.775
1288.0	8.772
1289.0	8.775
1290.0	8.784
1291.0	8.775
1292.0	8.783
1293.0	8.784
1294.0	8.782
1295.0	8.759
1296.0	8.765
1297.0	8.764
1298.0	8.782
1299.0	8.784
1300.0	8.786
1301.0	8.767
1302.0	8.773
1303.0	8.761
1304.0	8.766
1305.0	8.743
1306.0	8.764
1307.0	8.757
1308.0	8.766
1309.0	8.746
1310.0	8.741
1311.0	8.727
1312.0	8.718
1313.0	8.707
1314.0	8.721
1315.0	8.706
1316.0	8.725
1317.0	8.708
1318.0	8.715
1319.0	8.724
1320.0	8.725
1321.0	8.717
1322.0	8.703
1323.0	8.714
1324.0	8.747
1325.0	8.764
1326.0	8.771
1327.0	8.761
1328.0	8.752
1329.0	8.756
1330.0	8.760
1331.0	8.766
1332.0	8.769
1333.0	8.797
1334.0	8.794
1335.0	8.782
1336.0	8.784
1337.0	8.781
1338.0	8.788
1339.0	8.762
1340.0	8.770
1341.0	8.773
1342.0	8.778
1343.0	8.771
1344.0	8.775
1345.0	8.763
1346.0	8.761
1347.0	8.786
1348.0	8.798
1349.0	8.816
1350.0	8.790
1351.0	8.786
1352.0	8.793
1353.0	8.809
1354.0	8.827
1355.0	8.803
1356.0	8.796
1357.0	8.791
1358.0	8.819
1359.0	8.801
1360.0	8.809
1361.0	8.801
1362.0	8.809
1363.0	8.812
1364.0	8.814
1365.0	8.848
1366.0	8.864
1367.0	8.858
1368.0	8.850
1369.0	8.858
1370.0	8.866
1371.0	8.870
1372.0	8.869
1373.0	8.892
1374.0	8.891
1375.0	8.886
1376.0	8.889
1377.0	8.891
1378.0	8.907
1379.0	8.930
1380.0	8.970
1381.0	8.952
1382.0	8.933
1383.0	8.943
1384.0	8.984
1385.0	9.044
1386.0	9.054
1387.0	9.054
1388.0	9.007
1389.0	9.009
1390.0	9.030
1391.0	9.057
1392.0	9.052
1393.0	9.067
1394.0	9.086
1395.0	9.107
1396.0	9.104
1397.0	9.115
1398.0	9.136
1399.0	9.148
1400.0	9.150
