[SUMMARY]
Software Information
Software Name:	UVProbe
Version:	2.43
Mode:	Normal Mode

Data Information
Data is:	Original
Analyst:	
Date/Time:	16/02/2023 14:21:00
Comments:	

Instrument Information
Instrument Name:	SolidSpec3700
Instrument Type:	SolidSpec-3700 Series
Model (S/N):	SolidSpec3700 ( A11085100264CZ )

[METHOD]
[Measurement Properties]
Wavelength Range (nm.):	300,00 to 1400,00
Scan Speed:	Medium
Sampling Interval:	1,0
Auto Sampling Interval:	Disabled
Scan Mode:	Single

[Sample Preparation Properties]
Weight:	
Volume:	
Dilution:	
Path Length:	
Additional Information:	

[Instrument Properties]
Instrument Type:	SolidSpec-3700 Series
Measuring Mode:	Transmittance
Slit Width:	5,0 nm
Time Constant:	1,0 sec.
Source Lamp:	Auto
Light Source Change Wavelength:	285,00 nm
Detector Unit:	Integral Sphere
Detector Change Wavelength:	900,00 nm  1650,00 nm
Grating Change Wavelength:	800,00 nm
S/R Exchange:	Normal
Detector Lock:	Auto
Slit Program:	Fixed
Beam Mode:	Double
Stair Correction:	Disable

[Attachment Properties]
Attachment:	X-Y Stage
Sequence File:	Positions.xys

[Operation]
Threshold:	0,0010000
Points:	4
InterPolate:	Disabled
Average:	Disabled

[DATA]
Wavelength	Data
300.0	80.836
301.0	80.817
302.0	80.755
303.0	80.721
304.0	80.757
305.0	80.917
306.0	80.748
307.0	80.873
308.0	80.946
309.0	81.072
310.0	81.096
311.0	81.141
312.0	81.222
313.0	81.266
314.0	81.276
315.0	81.261
316.0	81.123
317.0	80.979
318.0	81.097
319.0	81.227
320.0	81.195
321.0	81.165
322.0	81.199
323.0	81.477
324.0	81.420
325.0	81.248
326.0	81.254
327.0	81.428
328.0	81.513
329.0	81.282
330.0	81.205
331.0	81.326
332.0	81.536
333.0	81.501
334.0	81.575
335.0	81.460
336.0	81.542
337.0	81.547
338.0	81.664
339.0	81.743
340.0	81.757
341.0	81.768
342.0	81.719
343.0	81.682
344.0	81.600
345.0	81.638
346.0	81.622
347.0	81.820
348.0	81.743
349.0	81.709
350.0	81.584
351.0	81.652
352.0	81.771
353.0	81.820
354.0	81.817
355.0	81.843
356.0	81.955
357.0	82.069
358.0	81.964
359.0	81.919
360.0	81.933
361.0	82.015
362.0	81.952
363.0	81.941
364.0	81.919
365.0	81.881
366.0	81.794
367.0	81.821
368.0	81.841
369.0	81.884
370.0	81.886
371.0	81.986
372.0	81.895
373.0	81.931
374.0	81.867
375.0	81.863
376.0	81.847
377.0	81.826
378.0	81.851
379.0	81.716
380.0	81.711
381.0	81.680
382.0	81.763
383.0	81.696
384.0	81.724
385.0	81.629
386.0	81.613
387.0	81.490
388.0	81.430
389.0	81.404
390.0	81.364
391.0	81.396
392.0	81.357
393.0	81.323
394.0	81.224
395.0	81.176
396.0	81.160
397.0	81.048
398.0	80.976
399.0	80.899
400.0	80.894
401.0	80.838
402.0	80.795
403.0	80.686
404.0	80.603
405.0	80.508
406.0	80.462
407.0	80.328
408.0	80.269
409.0	80.228
410.0	80.160
411.0	80.046
412.0	79.940
413.0	79.872
414.0	79.870
415.0	79.734
416.0	79.699
417.0	79.569
418.0	79.529
419.0	79.400
420.0	79.336
421.0	79.249
422.0	79.121
423.0	78.978
424.0	78.839
425.0	78.756
426.0	78.632
427.0	78.532
428.0	78.376
429.0	78.286
430.0	78.168
431.0	78.071
432.0	77.933
433.0	77.825
434.0	77.720
435.0	77.536
436.0	77.383
437.0	77.242
438.0	77.151
439.0	77.043
440.0	76.924
441.0	76.771
442.0	76.625
443.0	76.444
444.0	76.309
445.0	76.142
446.0	76.055
447.0	75.911
448.0	75.794
449.0	75.678
450.0	75.568
451.0	75.398
452.0	75.167
453.0	75.005
454.0	74.868
455.0	74.738
456.0	74.587
457.0	74.390
458.0	74.192
459.0	74.017
460.0	73.896
461.0	73.732
462.0	73.537
463.0	73.353
464.0	73.182
465.0	73.026
466.0	72.830
467.0	72.683
468.0	72.520
469.0	72.356
470.0	72.213
471.0	72.037
472.0	71.869
473.0	71.670
474.0	71.504
475.0	71.320
476.0	71.116
477.0	70.897
478.0	70.717
479.0	70.537
480.0	70.374
481.0	70.118
482.0	69.933
483.0	69.730
484.0	69.593
485.0	69.420
486.0	69.236
487.0	69.034
488.0	68.859
489.0	68.658
490.0	68.479
491.0	68.293
492.0	68.090
493.0	67.922
494.0	67.699
495.0	67.539
496.0	67.286
497.0	67.067
498.0	66.871
499.0	66.699
500.0	66.510
501.0	66.320
502.0	66.170
503.0	65.971
504.0	65.720
505.0	65.473
506.0	65.262
507.0	65.053
508.0	64.847
509.0	64.674
510.0	64.499
511.0	64.338
512.0	64.130
513.0	63.983
514.0	63.783
515.0	63.590
516.0	63.368
517.0	63.145
518.0	62.968
519.0	62.788
520.0	62.653
521.0	62.483
522.0	62.277
523.0	62.052
524.0	61.837
525.0	61.672
526.0	61.519
527.0	61.359
528.0	61.178
529.0	60.972
530.0	60.771
531.0	60.584
532.0	60.422
533.0	60.228
534.0	60.025
535.0	59.849
536.0	59.703
537.0	59.573
538.0	59.383
539.0	59.239
540.0	59.048
541.0	58.897
542.0	58.731
543.0	58.577
544.0	58.430
545.0	58.268
546.0	58.143
547.0	57.976
548.0	57.821
549.0	57.619
550.0	57.494
551.0	57.356
552.0	57.267
553.0	57.123
554.0	57.004
555.0	56.883
556.0	56.743
557.0	56.584
558.0	56.446
559.0	56.343
560.0	56.259
561.0	56.120
562.0	55.973
563.0	55.798
564.0	55.679
565.0	55.556
566.0	55.496
567.0	55.385
568.0	55.315
569.0	55.199
570.0	55.113
571.0	54.997
572.0	54.881
573.0	54.753
574.0	54.673
575.0	54.590
576.0	54.545
577.0	54.433
578.0	54.346
579.0	54.225
580.0	54.168
581.0	54.093
582.0	54.044
583.0	53.950
584.0	53.885
585.0	53.826
586.0	53.739
587.0	53.695
588.0	53.650
589.0	53.649
590.0	53.572
591.0	53.511
592.0	53.429
593.0	53.424
594.0	53.387
595.0	53.370
596.0	53.269
597.0	53.226
598.0	53.204
599.0	53.201
600.0	53.220
601.0	53.216
602.0	53.258
603.0	53.239
604.0	53.209
605.0	53.156
606.0	53.107
607.0	53.097
608.0	53.087
609.0	53.118
610.0	53.097
611.0	53.077
612.0	53.048
613.0	53.056
614.0	53.078
615.0	53.084
616.0	53.075
617.0	53.077
618.0	53.089
619.0	53.120
620.0	53.168
621.0	53.178
622.0	53.189
623.0	53.169
624.0	53.152
625.0	53.163
626.0	53.196
627.0	53.253
628.0	53.311
629.0	53.325
630.0	53.360
631.0	53.392
632.0	53.410
633.0	53.452
634.0	53.494
635.0	53.545
636.0	53.604
637.0	53.647
638.0	53.698
639.0	53.735
640.0	53.799
641.0	53.867
642.0	53.928
643.0	53.956
644.0	54.008
645.0	54.050
646.0	54.110
647.0	54.191
648.0	54.284
649.0	54.406
650.0	54.503
651.0	54.604
652.0	54.614
653.0	54.686
654.0	54.725
655.0	54.881
656.0	55.011
657.0	55.136
658.0	55.212
659.0	55.239
660.0	55.313
661.0	55.397
662.0	55.484
663.0	55.564
664.0	55.651
665.0	55.771
666.0	55.870
667.0	55.968
668.0	56.037
669.0	56.120
670.0	56.210
671.0	56.342
672.0	56.441
673.0	56.513
674.0	56.613
675.0	56.716
676.0	56.863
677.0	56.942
678.0	57.029
679.0	57.089
680.0	57.161
681.0	57.255
682.0	57.261
683.0	57.357
684.0	57.378
685.0	57.558
686.0	57.623
687.0	57.765
688.0	57.845
689.0	57.892
690.0	57.923
691.0	57.968
692.0	58.065
693.0	58.120
694.0	58.150
695.0	58.191
696.0	58.228
697.0	58.281
698.0	58.336
699.0	58.436
700.0	58.431
701.0	58.472
702.0	58.483
703.0	58.547
704.0	58.564
705.0	58.618
706.0	58.689
707.0	58.712
708.0	58.729
709.0	58.742
710.0	58.695
711.0	58.718
712.0	58.701
713.0	58.781
714.0	58.802
715.0	58.793
716.0	58.794
717.0	58.773
718.0	58.818
719.0	58.788
720.0	58.850
721.0	58.872
722.0	58.982
723.0	58.948
724.0	58.942
725.0	58.906
726.0	58.866
727.0	58.827
728.0	58.809
729.0	58.890
730.0	58.964
731.0	58.906
732.0	58.923
733.0	58.890
734.0	58.943
735.0	58.876
736.0	58.842
737.0	58.894
738.0	58.891
739.0	58.901
740.0	58.832
741.0	58.806
742.0	58.739
743.0	58.715
744.0	58.741
745.0	58.801
746.0	58.881
747.0	58.815
748.0	58.867
749.0	58.861
750.0	58.859
751.0	58.791
752.0	58.730
753.0	58.737
754.0	58.794
755.0	58.728
756.0	58.705
757.0	58.620
758.0	58.744
759.0	58.795
760.0	58.788
761.0	58.689
762.0	58.626
763.0	58.613
764.0	58.638
765.0	58.680
766.0	58.720
767.0	58.630
768.0	58.618
769.0	58.590
770.0	58.670
771.0	58.700
772.0	58.650
773.0	58.566
774.0	58.573
775.0	58.592
776.0	58.734
777.0	58.627
778.0	58.625
779.0	58.570
780.0	58.608
781.0	58.698
782.0	58.670
783.0	58.666
784.0	58.608
785.0	58.529
786.0	58.470
787.0	58.421
788.0	58.450
789.0	58.510
790.0	58.465
791.0	58.503
792.0	58.521
793.0	58.573
794.0	58.621
795.0	58.578
796.0	58.564
797.0	58.505
798.0	58.564
799.0	58.560
800.0	58.518
801.0	58.443
802.0	58.437
803.0	58.420
804.0	58.385
805.0	58.368
806.0	58.416
807.0	58.440
808.0	58.460
809.0	58.478
810.0	58.460
811.0	58.473
812.0	58.446
813.0	58.578
814.0	58.565
815.0	58.555
816.0	58.442
817.0	58.506
818.0	58.531
819.0	58.569
820.0	58.576
821.0	58.607
822.0	58.602
823.0	58.569
824.0	58.574
825.0	58.580
826.0	58.577
827.0	58.553
828.0	58.587
829.0	58.605
830.0	58.598
831.0	58.549
832.0	58.581
833.0	58.582
834.0	58.632
835.0	58.645
836.0	58.704
837.0	58.680
838.0	58.652
839.0	58.572
840.0	58.623
841.0	58.603
842.0	58.703
843.0	58.698
844.0	58.706
845.0	58.678
846.0	58.584
847.0	58.615
848.0	58.627
849.0	58.798
850.0	58.822
851.0	58.804
852.0	58.733
853.0	58.811
854.0	58.979
855.0	59.031
856.0	58.940
857.0	58.881
858.0	58.908
859.0	58.907
860.0	59.071
861.0	59.000
862.0	59.129
863.0	59.024
864.0	59.251
865.0	59.271
866.0	59.224
867.0	59.299
868.0	59.203
869.0	59.137
870.0	58.927
871.0	59.009
872.0	59.090
873.0	59.063
874.0	59.140
875.0	59.388
876.0	59.310
877.0	58.757
878.0	58.650
879.0	58.343
880.0	58.687
881.0	58.893
882.0	59.361
883.0	59.729
884.0	59.721
885.0	59.557
886.0	59.284
887.0	59.116
888.0	59.053
889.0	58.807
890.0	58.834
891.0	59.225
892.0	59.320
893.0	59.234
894.0	58.721
895.0	58.975
896.0	59.246
897.0	59.819
898.0	59.655
899.0	60.295
900.0	60.404
901.0	60.728
902.0	59.996
903.0	60.002
904.0	60.066
905.0	60.187
906.0	60.225
907.0	60.170
908.0	60.156
909.0	60.168
910.0	60.225
911.0	60.188
912.0	60.014
913.0	60.186
914.0	60.278
915.0	60.379
916.0	60.381
917.0	60.377
918.0	60.485
919.0	60.491
920.0	60.558
921.0	60.552
922.0	60.600
923.0	60.618
924.0	60.705
925.0	60.753
926.0	60.805
927.0	60.887
928.0	60.820
929.0	60.870
930.0	60.820
931.0	60.918
932.0	60.870
933.0	61.020
934.0	61.018
935.0	61.167
936.0	61.113
937.0	61.154
938.0	61.160
939.0	61.205
940.0	61.254
941.0	61.307
942.0	61.326
943.0	61.423
944.0	61.426
945.0	61.485
946.0	61.511
947.0	61.574
948.0	61.660
949.0	61.700
950.0	61.749
951.0	61.740
952.0	61.783
953.0	61.832
954.0	61.927
955.0	61.952
956.0	61.952
957.0	61.997
958.0	62.017
959.0	62.087
960.0	62.154
961.0	62.283
962.0	62.357
963.0	62.416
964.0	62.418
965.0	62.447
966.0	62.454
967.0	62.567
968.0	62.609
969.0	62.718
970.0	62.672
971.0	62.743
972.0	62.766
973.0	62.832
974.0	62.861
975.0	62.919
976.0	63.017
977.0	63.083
978.0	63.147
979.0	63.230
980.0	63.294
981.0	63.301
982.0	63.383
983.0	63.458
984.0	63.567
985.0	63.586
986.0	63.634
987.0	63.693
988.0	63.735
989.0	63.797
990.0	63.875
991.0	63.939
992.0	63.998
993.0	64.059
994.0	64.153
995.0	64.192
996.0	64.239
997.0	64.271
998.0	64.336
999.0	64.352
1000.0	64.418
1001.0	64.507
1002.0	64.575
1003.0	64.636
1004.0	64.699
1005.0	64.794
1006.0	64.884
1007.0	64.956
1008.0	65.028
1009.0	65.112
1010.0	65.184
1011.0	65.256
1012.0	65.329
1013.0	65.405
1014.0	65.422
1015.0	65.456
1016.0	65.521
1017.0	65.623
1018.0	65.693
1019.0	65.758
1020.0	65.816
1021.0	65.905
1022.0	65.971
1023.0	66.061
1024.0	66.074
1025.0	66.139
1026.0	66.229
1027.0	66.290
1028.0	66.373
1029.0	66.402
1030.0	66.525
1031.0	66.582
1032.0	66.680
1033.0	66.772
1034.0	66.848
1035.0	66.929
1036.0	66.990
1037.0	67.075
1038.0	67.162
1039.0	67.202
1040.0	67.265
1041.0	67.325
1042.0	67.409
1043.0	67.509
1044.0	67.555
1045.0	67.632
1046.0	67.702
1047.0	67.810
1048.0	67.890
1049.0	67.914
1050.0	67.958
1051.0	68.029
1052.0	68.143
1053.0	68.232
1054.0	68.307
1055.0	68.389
1056.0	68.450
1057.0	68.529
1058.0	68.598
1059.0	68.688
1060.0	68.763
1061.0	68.817
1062.0	68.906
1063.0	68.980
1064.0	69.085
1065.0	69.146
1066.0	69.230
1067.0	69.296
1068.0	69.381
1069.0	69.455
1070.0	69.520
1071.0	69.585
1072.0	69.649
1073.0	69.705
1074.0	69.753
1075.0	69.825
1076.0	69.910
1077.0	70.030
1078.0	70.110
1079.0	70.182
1080.0	70.232
1081.0	70.301
1082.0	70.390
1083.0	70.498
1084.0	70.559
1085.0	70.621
1086.0	70.685
1087.0	70.789
1088.0	70.880
1089.0	70.926
1090.0	71.000
1091.0	71.064
1092.0	71.161
1093.0	71.220
1094.0	71.288
1095.0	71.339
1096.0	71.423
1097.0	71.509
1098.0	71.608
1099.0	71.689
1100.0	71.765
1101.0	71.821
1102.0	71.904
1103.0	71.962
1104.0	72.022
1105.0	72.075
1106.0	72.140
1107.0	72.195
1108.0	72.271
1109.0	72.337
1110.0	72.433
1111.0	72.500
1112.0	72.594
1113.0	72.667
1114.0	72.734
1115.0	72.785
1116.0	72.843
1117.0	72.904
1118.0	72.962
1119.0	73.043
1120.0	73.119
1121.0	73.192
1122.0	73.253
1123.0	73.305
1124.0	73.392
1125.0	73.472
1126.0	73.530
1127.0	73.557
1128.0	73.586
1129.0	73.634
1130.0	73.696
1131.0	73.736
1132.0	73.828
1133.0	73.901
1134.0	73.967
1135.0	74.019
1136.0	74.077
1137.0	74.144
1138.0	74.195
1139.0	74.248
1140.0	74.311
1141.0	74.342
1142.0	74.401
1143.0	74.454
1144.0	74.530
1145.0	74.557
1146.0	74.610
1147.0	74.667
1148.0	74.740
1149.0	74.778
1150.0	74.797
1151.0	74.854
1152.0	74.929
1153.0	74.999
1154.0	75.058
1155.0	75.112
1156.0	75.171
1157.0	75.225
1158.0	75.259
1159.0	75.320
1160.0	75.367
1161.0	75.441
1162.0	75.507
1163.0	75.571
1164.0	75.612
1165.0	75.650
1166.0	75.673
1167.0	75.736
1168.0	75.775
1169.0	75.809
1170.0	75.844
1171.0	75.882
1172.0	75.952
1173.0	75.981
1174.0	76.030
1175.0	76.060
1176.0	76.096
1177.0	76.154
1178.0	76.200
1179.0	76.234
1180.0	76.262
1181.0	76.295
1182.0	76.351
1183.0	76.414
1184.0	76.468
1185.0	76.508
1186.0	76.541
1187.0	76.575
1188.0	76.603
1189.0	76.638
1190.0	76.686
1191.0	76.746
1192.0	76.758
1193.0	76.790
1194.0	76.827
1195.0	76.871
1196.0	76.905
1197.0	76.954
1198.0	76.993
1199.0	77.022
1200.0	77.042
1201.0	77.076
1202.0	77.096
1203.0	77.100
1204.0	77.124
1205.0	77.171
1206.0	77.229
1207.0	77.255
1208.0	77.296
1209.0	77.323
1210.0	77.331
1211.0	77.334
1212.0	77.349
1213.0	77.405
1214.0	77.439
1215.0	77.470
1216.0	77.494
1217.0	77.523
1218.0	77.538
1219.0	77.554
1220.0	77.588
1221.0	77.594
1222.0	77.592
1223.0	77.585
1224.0	77.632
1225.0	77.648
1226.0	77.658
1227.0	77.646
1228.0	77.727
1229.0	77.779
1230.0	77.837
1231.0	77.828
1232.0	77.819
1233.0	77.822
1234.0	77.821
1235.0	77.853
1236.0	77.866
1237.0	77.909
1238.0	77.891
1239.0	77.915
1240.0	77.912
1241.0	77.929
1242.0	77.932
1243.0	77.936
1244.0	77.955
1245.0	77.947
1246.0	77.972
1247.0	77.993
1248.0	78.045
1249.0	78.069
1250.0	78.101
1251.0	78.069
1252.0	78.065
1253.0	78.066
1254.0	78.106
1255.0	78.095
1256.0	78.076
1257.0	78.078
1258.0	78.107
1259.0	78.130
1260.0	78.119
1261.0	78.110
1262.0	78.102
1263.0	78.125
1264.0	78.120
1265.0	78.136
1266.0	78.141
1267.0	78.133
1268.0	78.143
1269.0	78.102
1270.0	78.112
1271.0	78.083
1272.0	78.118
1273.0	78.125
1274.0	78.137
1275.0	78.129
1276.0	78.123
1277.0	78.117
1278.0	78.140
1279.0	78.158
1280.0	78.154
1281.0	78.135
1282.0	78.119
1283.0	78.116
1284.0	78.090
1285.0	78.093
1286.0	78.090
1287.0	78.116
1288.0	78.103
1289.0	78.094
1290.0	78.061
1291.0	78.047
1292.0	78.042
1293.0	78.011
1294.0	78.036
1295.0	78.045
1296.0	78.092
1297.0	78.071
1298.0	78.059
1299.0	78.029
1300.0	78.026
1301.0	78.012
1302.0	77.997
1303.0	77.961
1304.0	77.928
1305.0	77.909
1306.0	77.915
1307.0	77.911
1308.0	77.933
1309.0	77.907
1310.0	77.927
1311.0	77.908
1312.0	77.876
1313.0	77.808
1314.0	77.790
1315.0	77.803
1316.0	77.833
1317.0	77.834
1318.0	77.814
1319.0	77.804
1320.0	77.772
1321.0	77.769
1322.0	77.750
1323.0	77.715
1324.0	77.701
1325.0	77.678
1326.0	77.655
1327.0	77.638
1328.0	77.639
1329.0	77.644
1330.0	77.603
1331.0	77.553
1332.0	77.551
1333.0	77.555
1334.0	77.553
1335.0	77.511
1336.0	77.467
1337.0	77.421
1338.0	77.422
1339.0	77.410
1340.0	77.415
1341.0	77.401
1342.0	77.407
1343.0	77.395
1344.0	77.330
1345.0	77.289
1346.0	77.281
1347.0	77.296
1348.0	77.266
1349.0	77.215
1350.0	77.182
1351.0	77.146
1352.0	77.103
1353.0	77.042
1354.0	77.023
1355.0	76.985
1356.0	76.949
1357.0	76.942
1358.0	76.923
1359.0	76.891
1360.0	76.843
1361.0	76.826
1362.0	76.823
1363.0	76.876
1364.0	76.870
1365.0	76.855
1366.0	76.795
1367.0	76.802
1368.0	76.780
1369.0	76.744
1370.0	76.675
1371.0	76.656
1372.0	76.591
1373.0	76.553
1374.0	76.549
1375.0	76.555
1376.0	76.524
1377.0	76.437
1378.0	76.391
1379.0	76.352
1380.0	76.319
1381.0	76.219
1382.0	76.173
1383.0	76.162
1384.0	76.196
1385.0	76.173
1386.0	76.176
1387.0	76.174
1388.0	76.189
1389.0	76.170
1390.0	76.128
1391.0	76.119
1392.0	76.081
1393.0	76.061
1394.0	76.019
1395.0	75.980
1396.0	75.998
1397.0	75.965
1398.0	75.952
1399.0	75.871
1400.0	75.847
