[SUMMARY]
Software Information
Software Name:	UVProbe
Version:	2.43
Mode:	Normal Mode

Data Information
Data is:	Original
Analyst:	
Date/Time:	05/04/2023 11:12:13
Comments:	

Instrument Information
Instrument Name:	SolidSpec3700
Instrument Type:	SolidSpec-3700 Series
Model (S/N):	SolidSpec3700 ( A11085100264CZ )

[METHOD]
[Measurement Properties]
Wavelength Range (nm.):	285,00 to 1600,00
Scan Speed:	Medium
Sampling Interval:	1,0
Auto Sampling Interval:	Disabled
Scan Mode:	Single

[Sample Preparation Properties]
Weight:	
Volume:	
Dilution:	
Path Length:	
Additional Information:	

[Instrument Properties]
Instrument Type:	SolidSpec-3700 Series
Measuring Mode:	Transmittance
Slit Width:	5,0 nm
Time Constant:	1,0 sec.
Source Lamp:	Auto
Light Source Change Wavelength:	282,00 nm
Detector Unit:	Integral Sphere
Detector Change Wavelength:	900,00 nm  1650,00 nm
Grating Change Wavelength:	1000,00 nm
S/R Exchange:	Normal
Detector Lock:	Auto
Slit Program:	Fixed
Beam Mode:	Double
Stair Correction:	Disable

[Attachment Properties]
Attachment:	X-Y Stage
Sequence File:	R_robot_16-100-P1_optical_pads.xys

[Operation]
Threshold:	0,0010000
Points:	4
InterPolate:	Disabled
Average:	Disabled

[DATA]
Wavelength	Data
285.0	77.300
286.0	77.537
287.0	77.761
288.0	77.687
289.0	77.800
290.0	77.617
291.0	78.127
292.0	78.007
293.0	78.281
294.0	78.128
295.0	78.441
296.0	78.622
297.0	78.918
298.0	78.824
299.0	79.093
300.0	78.992
301.0	79.127
302.0	78.800
303.0	78.729
304.0	78.842
305.0	79.095
306.0	79.171
307.0	79.075
308.0	78.930
309.0	78.929
310.0	78.918
311.0	79.146
312.0	79.192
313.0	79.357
314.0	79.099
315.0	79.067
316.0	78.905
317.0	78.958
318.0	78.950
319.0	78.987
320.0	79.051
321.0	79.084
322.0	79.098
323.0	79.087
324.0	79.159
325.0	79.100
326.0	79.032
327.0	79.019
328.0	79.025
329.0	79.118
330.0	79.343
331.0	79.365
332.0	79.490
333.0	79.382
334.0	79.581
335.0	79.623
336.0	79.634
337.0	79.584
338.0	79.628
339.0	79.704
340.0	79.864
341.0	80.068
342.0	80.153
343.0	80.279
344.0	80.207
345.0	80.312
346.0	80.386
347.0	80.565
348.0	80.570
349.0	80.666
350.0	80.702
351.0	80.870
352.0	80.814
353.0	80.771
354.0	80.875
355.0	80.919
356.0	80.981
357.0	80.980
358.0	81.083
359.0	81.064
360.0	81.030
361.0	80.876
362.0	80.924
363.0	80.894
364.0	81.048
365.0	81.025
366.0	80.982
367.0	80.875
368.0	80.795
369.0	80.843
370.0	80.820
371.0	80.839
372.0	80.817
373.0	80.776
374.0	80.740
375.0	80.663
376.0	80.698
377.0	80.690
378.0	80.660
379.0	80.574
380.0	80.477
381.0	80.358
382.0	80.271
383.0	80.231
384.0	80.180
385.0	80.102
386.0	80.009
387.0	79.993
388.0	79.970
389.0	79.925
390.0	79.874
391.0	79.713
392.0	79.563
393.0	79.366
394.0	79.318
395.0	79.245
396.0	79.171
397.0	79.127
398.0	79.036
399.0	78.971
400.0	78.811
401.0	78.712
402.0	78.633
403.0	78.527
404.0	78.378
405.0	78.178
406.0	78.048
407.0	77.916
408.0	77.789
409.0	77.649
410.0	77.485
411.0	77.364
412.0	77.231
413.0	77.105
414.0	76.972
415.0	76.813
416.0	76.660
417.0	76.534
418.0	76.334
419.0	76.209
420.0	76.012
421.0	75.889
422.0	75.727
423.0	75.579
424.0	75.412
425.0	75.237
426.0	75.018
427.0	74.801
428.0	74.653
429.0	74.490
430.0	74.328
431.0	74.172
432.0	73.932
433.0	73.735
434.0	73.477
435.0	73.302
436.0	73.097
437.0	72.874
438.0	72.671
439.0	72.445
440.0	72.179
441.0	71.941
442.0	71.740
443.0	71.630
444.0	71.411
445.0	71.179
446.0	70.884
447.0	70.637
448.0	70.395
449.0	70.138
450.0	69.910
451.0	69.642
452.0	69.409
453.0	69.144
454.0	68.883
455.0	68.612
456.0	68.341
457.0	68.057
458.0	67.774
459.0	67.510
460.0	67.235
461.0	66.962
462.0	66.684
463.0	66.409
464.0	66.102
465.0	65.784
466.0	65.476
467.0	65.230
468.0	64.978
469.0	64.729
470.0	64.433
471.0	64.116
472.0	63.810
473.0	63.503
474.0	63.203
475.0	62.875
476.0	62.553
477.0	62.244
478.0	61.915
479.0	61.564
480.0	61.217
481.0	60.861
482.0	60.533
483.0	60.174
484.0	59.818
485.0	59.492
486.0	59.143
487.0	58.811
488.0	58.439
489.0	58.133
490.0	57.832
491.0	57.495
492.0	57.135
493.0	56.793
494.0	56.479
495.0	56.164
496.0	55.786
497.0	55.403
498.0	55.035
499.0	54.706
500.0	54.362
501.0	54.001
502.0	53.633
503.0	53.291
504.0	52.947
505.0	52.595
506.0	52.262
507.0	51.940
508.0	51.575
509.0	51.217
510.0	50.860
511.0	50.582
512.0	50.224
513.0	49.889
514.0	49.506
515.0	49.174
516.0	48.824
517.0	48.518
518.0	48.206
519.0	47.903
520.0	47.568
521.0	47.261
522.0	46.954
523.0	46.659
524.0	46.339
525.0	46.021
526.0	45.693
527.0	45.400
528.0	45.072
529.0	44.774
530.0	44.449
531.0	44.145
532.0	43.792
533.0	43.517
534.0	43.223
535.0	42.980
536.0	42.675
537.0	42.398
538.0	42.122
539.0	41.850
540.0	41.577
541.0	41.310
542.0	41.011
543.0	40.763
544.0	40.499
545.0	40.272
546.0	40.025
547.0	39.771
548.0	39.537
549.0	39.268
550.0	39.032
551.0	38.792
552.0	38.561
553.0	38.375
554.0	38.176
555.0	37.992
556.0	37.798
557.0	37.594
558.0	37.408
559.0	37.199
560.0	37.016
561.0	36.833
562.0	36.678
563.0	36.542
564.0	36.380
565.0	36.183
566.0	35.995
567.0	35.839
568.0	35.709
569.0	35.542
570.0	35.372
571.0	35.203
572.0	35.067
573.0	34.916
574.0	34.770
575.0	34.588
576.0	34.418
577.0	34.254
578.0	34.105
579.0	33.964
580.0	33.797
581.0	33.660
582.0	33.540
583.0	33.441
584.0	33.326
585.0	33.212
586.0	33.096
587.0	32.988
588.0	32.878
589.0	32.771
590.0	32.679
591.0	32.599
592.0	32.520
593.0	32.445
594.0	32.355
595.0	32.280
596.0	32.194
597.0	32.143
598.0	32.073
599.0	32.033
600.0	31.966
601.0	31.947
602.0	31.912
603.0	31.919
604.0	31.873
605.0	31.869
606.0	31.843
607.0	31.872
608.0	31.881
609.0	31.888
610.0	31.916
611.0	31.923
612.0	31.959
613.0	31.972
614.0	32.039
615.0	32.063
616.0	32.115
617.0	32.150
618.0	32.227
619.0	32.317
620.0	32.356
621.0	32.411
622.0	32.448
623.0	32.532
624.0	32.612
625.0	32.664
626.0	32.752
627.0	32.823
628.0	32.917
629.0	32.974
630.0	33.031
631.0	33.081
632.0	33.129
633.0	33.181
634.0	33.239
635.0	33.315
636.0	33.360
637.0	33.407
638.0	33.459
639.0	33.521
640.0	33.538
641.0	33.547
642.0	33.572
643.0	33.611
644.0	33.645
645.0	33.692
646.0	33.760
647.0	33.820
648.0	33.842
649.0	33.866
650.0	33.921
651.0	33.974
652.0	34.048
653.0	34.081
654.0	34.163
655.0	34.255
656.0	34.355
657.0	34.466
658.0	34.564
659.0	34.662
660.0	34.768
661.0	34.891
662.0	35.027
663.0	35.139
664.0	35.264
665.0	35.437
666.0	35.635
667.0	35.846
668.0	36.074
669.0	36.328
670.0	36.624
671.0	36.902
672.0	37.253
673.0	37.563
674.0	37.890
675.0	38.219
676.0	38.614
677.0	39.018
678.0	39.403
679.0	39.810
680.0	40.243
681.0	40.652
682.0	41.032
683.0	41.439
684.0	41.932
685.0	42.454
686.0	42.956
687.0	43.429
688.0	43.928
689.0	44.476
690.0	44.997
691.0	45.481
692.0	45.973
693.0	46.501
694.0	47.070
695.0	47.632
696.0	48.164
697.0	48.671
698.0	49.146
699.0	49.652
700.0	50.156
701.0	50.675
702.0	51.174
703.0	51.618
704.0	52.062
705.0	52.507
706.0	52.899
707.0	53.370
708.0	53.741
709.0	54.192
710.0	54.561
711.0	55.016
712.0	55.468
713.0	55.834
714.0	56.158
715.0	56.490
716.0	56.888
717.0	57.292
718.0	57.660
719.0	57.956
720.0	58.240
721.0	58.553
722.0	58.869
723.0	59.206
724.0	59.439
725.0	59.754
726.0	59.918
727.0	60.136
728.0	60.255
729.0	60.512
730.0	60.580
731.0	60.780
732.0	60.932
733.0	61.292
734.0	61.414
735.0	61.624
736.0	61.740
737.0	61.930
738.0	62.014
739.0	62.185
740.0	62.451
741.0	62.625
742.0	62.770
743.0	62.799
744.0	62.900
745.0	62.964
746.0	63.091
747.0	63.123
748.0	63.250
749.0	63.345
750.0	63.463
751.0	63.594
752.0	63.735
753.0	63.927
754.0	64.015
755.0	64.089
756.0	64.280
757.0	64.335
758.0	64.415
759.0	64.346
760.0	64.495
761.0	64.578
762.0	64.745
763.0	64.747
764.0	64.780
765.0	64.845
766.0	64.854
767.0	64.896
768.0	64.830
769.0	64.933
770.0	65.105
771.0	65.228
772.0	65.339
773.0	65.322
774.0	65.455
775.0	65.466
776.0	65.552
777.0	65.466
778.0	65.516
779.0	65.464
780.0	65.636
781.0	65.776
782.0	65.925
783.0	65.839
784.0	65.914
785.0	65.850
786.0	65.964
787.0	65.998
788.0	66.123
789.0	66.215
790.0	66.290
791.0	66.268
792.0	66.318
793.0	66.290
794.0	66.409
795.0	66.311
796.0	66.224
797.0	66.128
798.0	66.284
799.0	66.430
800.0	66.640
801.0	66.583
802.0	66.623
803.0	66.540
804.0	66.666
805.0	66.659
806.0	66.683
807.0	66.644
808.0	66.629
809.0	66.604
810.0	66.713
811.0	66.819
812.0	67.057
813.0	66.956
814.0	67.095
815.0	67.040
816.0	67.206
817.0	67.240
818.0	67.259
819.0	67.280
820.0	67.046
821.0	67.178
822.0	67.310
823.0	67.386
824.0	67.232
825.0	67.233
826.0	67.327
827.0	67.534
828.0	67.472
829.0	67.553
830.0	67.536
831.0	67.627
832.0	67.615
833.0	67.656
834.0	67.559
835.0	67.660
836.0	67.543
837.0	67.861
838.0	67.841
839.0	68.072
840.0	67.856
841.0	67.919
842.0	67.974
843.0	68.052
844.0	68.023
845.0	67.695
846.0	67.812
847.0	67.850
848.0	68.210
849.0	67.930
850.0	68.073
851.0	67.920
852.0	68.104
853.0	67.772
854.0	67.942
855.0	68.279
856.0	68.041
857.0	68.058
858.0	67.883
859.0	67.827
860.0	68.439
861.0	68.228
862.0	70.004
863.0	69.504
864.0	69.576
865.0	68.692
866.0	68.344
867.0	68.601
868.0	68.982
869.0	69.461
870.0	70.538
871.0	69.616
872.0	69.888
873.0	68.520
874.0	68.262
875.0	67.881
876.0	68.324
877.0	68.941
878.0	68.161
879.0	69.561
880.0	70.506
881.0	72.170
882.0	70.761
883.0	69.166
884.0	67.462
885.0	67.106
886.0	66.124
887.0	66.601
888.0	66.647
889.0	66.354
890.0	66.289
891.0	65.654
892.0	66.946
893.0	68.577
894.0	70.098
895.0	73.173
896.0	72.194
897.0	72.389
898.0	67.330
899.0	70.606
900.0	69.686
901.0	73.504
902.0	72.496
903.0	71.525
904.0	68.828
905.0	67.524
906.0	67.898
907.0	70.727
908.0	70.791
909.0	71.734
910.0	71.588
911.0	70.423
912.0	71.875
913.0	71.074
914.0	72.632
915.0	70.603
916.0	69.574
917.0	67.852
918.0	69.135
919.0	69.408
920.0	70.424
921.0	69.996
922.0	68.779
923.0	67.932
924.0	68.100
925.0	69.664
926.0	71.016
927.0	71.200
928.0	72.091
929.0	70.763
930.0	69.620
931.0	69.851
932.0	70.630
933.0	70.391
934.0	70.855
935.0	70.926
936.0	72.487
937.0	71.221
938.0	70.490
939.0	69.411
940.0	68.321
941.0	69.001
942.0	69.975
943.0	72.134
944.0	72.754
945.0	73.225
946.0	72.710
947.0	71.402
948.0	72.094
949.0	71.029
950.0	72.577
951.0	71.286
952.0	72.255
953.0	71.104
954.0	72.127
955.0	72.062
956.0	72.671
957.0	71.683
958.0	71.821
959.0	70.313
960.0	70.773
961.0	70.400
962.0	71.556
963.0	72.179
964.0	72.437
965.0	72.502
966.0	71.571
967.0	72.453
968.0	73.525
969.0	73.207
970.0	73.558
971.0	72.034
972.0	72.521
973.0	73.142
974.0	74.498
975.0	74.243
976.0	72.384
977.0	72.109
978.0	71.795
979.0	71.586
980.0	70.988
981.0	72.383
982.0	73.356
983.0	74.094
984.0	73.392
985.0	73.888
986.0	73.681
987.0	73.128
988.0	72.512
989.0	72.636
990.0	73.679
991.0	73.837
992.0	73.545
993.0	72.957
994.0	73.321
995.0	73.407
996.0	73.315
997.0	73.010
998.0	73.024
999.0	73.134
1000.0	73.325
1001.0	73.622
1002.0	74.060
1003.0	74.107
1004.0	74.096
1005.0	74.117
1006.0	74.137
1007.0	74.195
1008.0	74.240
1009.0	74.324
1010.0	74.355
1011.0	74.369
1012.0	74.408
1013.0	74.445
1014.0	74.496
1015.0	74.546
1016.0	74.546
1017.0	74.617
1018.0	74.643
1019.0	74.749
1020.0	74.803
1021.0	74.838
1022.0	74.884
1023.0	74.903
1024.0	74.945
1025.0	74.954
1026.0	74.994
1027.0	75.054
1028.0	75.118
1029.0	75.177
1030.0	75.210
1031.0	75.258
1032.0	75.252
1033.0	75.303
1034.0	75.347
1035.0	75.420
1036.0	75.440
1037.0	75.506
1038.0	75.554
1039.0	75.630
1040.0	75.671
1041.0	75.732
1042.0	75.751
1043.0	75.766
1044.0	75.809
1045.0	75.859
1046.0	75.927
1047.0	75.950
1048.0	76.011
1049.0	76.046
1050.0	76.104
1051.0	76.151
1052.0	76.181
1053.0	76.206
1054.0	76.228
1055.0	76.301
1056.0	76.355
1057.0	76.422
1058.0	76.473
1059.0	76.532
1060.0	76.576
1061.0	76.608
1062.0	76.637
1063.0	76.675
1064.0	76.744
1065.0	76.800
1066.0	76.853
1067.0	76.864
1068.0	76.903
1069.0	76.922
1070.0	76.986
1071.0	77.025
1072.0	77.082
1073.0	77.120
1074.0	77.181
1075.0	77.242
1076.0	77.267
1077.0	77.311
1078.0	77.348
1079.0	77.420
1080.0	77.465
1081.0	77.516
1082.0	77.538
1083.0	77.601
1084.0	77.634
1085.0	77.715
1086.0	77.765
1087.0	77.838
1088.0	77.852
1089.0	77.899
1090.0	77.924
1091.0	77.982
1092.0	78.008
1093.0	78.051
1094.0	78.108
1095.0	78.149
1096.0	78.200
1097.0	78.223
1098.0	78.273
1099.0	78.322
1100.0	78.385
1101.0	78.428
1102.0	78.484
1103.0	78.513
1104.0	78.559
1105.0	78.621
1106.0	78.674
1107.0	78.731
1108.0	78.753
1109.0	78.819
1110.0	78.846
1111.0	78.911
1112.0	78.928
1113.0	78.977
1114.0	79.016
1115.0	79.070
1116.0	79.103
1117.0	79.137
1118.0	79.188
1119.0	79.232
1120.0	79.283
1121.0	79.317
1122.0	79.378
1123.0	79.422
1124.0	79.465
1125.0	79.521
1126.0	79.538
1127.0	79.591
1128.0	79.653
1129.0	79.702
1130.0	79.714
1131.0	79.739
1132.0	79.779
1133.0	79.840
1134.0	79.832
1135.0	79.887
1136.0	79.932
1137.0	80.009
1138.0	80.028
1139.0	80.072
1140.0	80.100
1141.0	80.168
1142.0	80.222
1143.0	80.266
1144.0	80.282
1145.0	80.309
1146.0	80.345
1147.0	80.396
1148.0	80.442
1149.0	80.503
1150.0	80.557
1151.0	80.587
1152.0	80.623
1153.0	80.649
1154.0	80.687
1155.0	80.717
1156.0	80.747
1157.0	80.767
1158.0	80.813
1159.0	80.867
1160.0	80.914
1161.0	80.965
1162.0	81.004
1163.0	81.047
1164.0	81.075
1165.0	81.095
1166.0	81.121
1167.0	81.126
1168.0	81.138
1169.0	81.210
1170.0	81.244
1171.0	81.294
1172.0	81.331
1173.0	81.361
1174.0	81.411
1175.0	81.392
1176.0	81.446
1177.0	81.472
1178.0	81.514
1179.0	81.531
1180.0	81.557
1181.0	81.584
1182.0	81.594
1183.0	81.634
1184.0	81.692
1185.0	81.762
1186.0	81.774
1187.0	81.772
1188.0	81.803
1189.0	81.863
1190.0	81.900
1191.0	81.928
1192.0	81.930
1193.0	81.980
1194.0	81.998
1195.0	82.027
1196.0	82.066
1197.0	82.117
1198.0	82.161
1199.0	82.147
1200.0	82.171
1201.0	82.218
1202.0	82.288
1203.0	82.305
1204.0	82.282
1205.0	82.283
1206.0	82.290
1207.0	82.319
1208.0	82.341
1209.0	82.389
1210.0	82.428
1211.0	82.464
1212.0	82.452
1213.0	82.483
1214.0	82.505
1215.0	82.538
1216.0	82.559
1217.0	82.549
1218.0	82.566
1219.0	82.590
1220.0	82.634
1221.0	82.660
1222.0	82.660
1223.0	82.686
1224.0	82.700
1225.0	82.720
1226.0	82.747
1227.0	82.777
1228.0	82.801
1229.0	82.792
1230.0	82.789
1231.0	82.800
1232.0	82.817
1233.0	82.846
1234.0	82.847
1235.0	82.860
1236.0	82.882
1237.0	82.946
1238.0	82.986
1239.0	82.988
1240.0	82.986
1241.0	82.983
1242.0	83.016
1243.0	83.029
1244.0	83.031
1245.0	83.036
1246.0	83.042
1247.0	83.071
1248.0	83.065
1249.0	83.053
1250.0	83.065
1251.0	83.098
1252.0	83.120
1253.0	83.111
1254.0	83.095
1255.0	83.119
1256.0	83.144
1257.0	83.175
1258.0	83.169
1259.0	83.181
1260.0	83.182
1261.0	83.198
1262.0	83.209
1263.0	83.211
1264.0	83.247
1265.0	83.250
1266.0	83.269
1267.0	83.250
1268.0	83.264
1269.0	83.301
1270.0	83.282
1271.0	83.293
1272.0	83.271
1273.0	83.308
1274.0	83.308
1275.0	83.320
1276.0	83.349
1277.0	83.328
1278.0	83.313
1279.0	83.273
1280.0	83.282
1281.0	83.308
1282.0	83.324
1283.0	83.309
1284.0	83.286
1285.0	83.272
1286.0	83.315
1287.0	83.351
1288.0	83.358
1289.0	83.325
1290.0	83.301
1291.0	83.304
1292.0	83.311
1293.0	83.322
1294.0	83.315
1295.0	83.334
1296.0	83.322
1297.0	83.349
1298.0	83.327
1299.0	83.357
1300.0	83.314
1301.0	83.318
1302.0	83.296
1303.0	83.318
1304.0	83.328
1305.0	83.296
1306.0	83.288
1307.0	83.298
1308.0	83.311
1309.0	83.327
1310.0	83.259
1311.0	83.232
1312.0	83.227
1313.0	83.254
1314.0	83.285
1315.0	83.280
1316.0	83.314
1317.0	83.280
1318.0	83.276
1319.0	83.240
1320.0	83.253
1321.0	83.229
1322.0	83.229
1323.0	83.257
1324.0	83.258
1325.0	83.253
1326.0	83.220
1327.0	83.218
1328.0	83.234
1329.0	83.244
1330.0	83.273
1331.0	83.260
1332.0	83.248
1333.0	83.197
1334.0	83.184
1335.0	83.185
1336.0	83.186
1337.0	83.185
1338.0	83.160
1339.0	83.148
1340.0	83.121
1341.0	83.094
1342.0	83.069
1343.0	83.057
1344.0	83.040
1345.0	83.057
1346.0	83.047
1347.0	83.062
1348.0	83.035
1349.0	83.029
1350.0	82.994
1351.0	82.977
1352.0	82.961
1353.0	82.917
1354.0	82.914
1355.0	82.879
1356.0	82.867
1357.0	82.787
1358.0	82.764
1359.0	82.745
1360.0	82.784
1361.0	82.773
1362.0	82.763
1363.0	82.753
1364.0	82.752
1365.0	82.776
1366.0	82.769
1367.0	82.761
1368.0	82.761
1369.0	82.741
1370.0	82.721
1371.0	82.677
1372.0	82.655
1373.0	82.652
1374.0	82.644
1375.0	82.614
1376.0	82.553
1377.0	82.498
1378.0	82.451
1379.0	82.454
1380.0	82.447
1381.0	82.458
1382.0	82.412
1383.0	82.415
1384.0	82.401
1385.0	82.369
1386.0	82.344
1387.0	82.327
1388.0	82.374
1389.0	82.401
1390.0	82.385
1391.0	82.339
1392.0	82.261
1393.0	82.269
1394.0	82.285
1395.0	82.311
1396.0	82.318
1397.0	82.309
1398.0	82.275
1399.0	82.233
1400.0	82.230
1401.0	82.204
1402.0	82.188
1403.0	82.131
1404.0	82.140
1405.0	82.150
1406.0	82.144
1407.0	82.123
1408.0	82.095
1409.0	82.134
1410.0	82.155
1411.0	82.136
1412.0	82.107
1413.0	82.087
1414.0	82.077
1415.0	82.058
1416.0	82.051
1417.0	82.083
1418.0	82.056
1419.0	82.036
1420.0	82.033
1421.0	82.017
1422.0	82.002
1423.0	81.955
1424.0	81.946
1425.0	81.949
1426.0	81.892
1427.0	81.894
1428.0	81.852
1429.0	81.913
1430.0	81.872
1431.0	81.859
1432.0	81.819
1433.0	81.825
1434.0	81.826
1435.0	81.727
1436.0	81.737
1437.0	81.706
1438.0	81.741
1439.0	81.704
1440.0	81.669
1441.0	81.628
1442.0	81.553
1443.0	81.553
1444.0	81.578
1445.0	81.608
1446.0	81.584
1447.0	81.535
1448.0	81.535
1449.0	81.496
1450.0	81.437
1451.0	81.391
1452.0	81.349
1453.0	81.365
1454.0	81.359
1455.0	81.386
1456.0	81.416
1457.0	81.408
1458.0	81.387
1459.0	81.342
1460.0	81.308
1461.0	81.263
1462.0	81.260
1463.0	81.242
1464.0	81.269
1465.0	81.217
1466.0	81.240
1467.0	81.219
1468.0	81.194
1469.0	81.127
1470.0	81.081
1471.0	81.063
1472.0	81.028
1473.0	81.049
1474.0	81.036
1475.0	81.044
1476.0	81.030
1477.0	81.051
1478.0	81.066
1479.0	80.982
1480.0	80.941
1481.0	80.874
1482.0	80.876
1483.0	80.868
1484.0	80.883
1485.0	80.854
1486.0	80.854
1487.0	80.851
1488.0	80.829
1489.0	80.808
1490.0	80.714
1491.0	80.729
1492.0	80.691
1493.0	80.725
1494.0	80.687
1495.0	80.660
1496.0	80.618
1497.0	80.615
1498.0	80.639
1499.0	80.603
1500.0	80.571
1501.0	80.494
1502.0	80.504
1503.0	80.490
1504.0	80.493
1505.0	80.419
1506.0	80.402
1507.0	80.332
1508.0	80.343
1509.0	80.304
1510.0	80.301
1511.0	80.274
1512.0	80.256
1513.0	80.256
1514.0	80.270
1515.0	80.262
1516.0	80.218
1517.0	80.136
1518.0	80.075
1519.0	80.077
1520.0	80.083
1521.0	80.110
1522.0	80.100
1523.0	80.057
1524.0	80.049
1525.0	80.028
1526.0	80.072
1527.0	80.086
1528.0	80.031
1529.0	79.907
1530.0	79.822
1531.0	79.818
1532.0	79.823
1533.0	79.860
1534.0	79.810
1535.0	79.844
1536.0	79.792
1537.0	79.792
1538.0	79.751
1539.0	79.692
1540.0	79.664
1541.0	79.671
1542.0	79.684
1543.0	79.684
1544.0	79.637
1545.0	79.592
1546.0	79.585
1547.0	79.558
1548.0	79.486
1549.0	79.467
1550.0	79.473
1551.0	79.504
1552.0	79.435
1553.0	79.391
1554.0	79.403
1555.0	79.405
1556.0	79.339
1557.0	79.289
1558.0	79.295
1559.0	79.300
1560.0	79.285
1561.0	79.243
1562.0	79.234
1563.0	79.216
1564.0	79.178
1565.0	79.197
1566.0	79.190
1567.0	79.217
1568.0	79.146
1569.0	79.070
1570.0	78.969
1571.0	78.994
1572.0	79.011
1573.0	79.060
1574.0	79.072
1575.0	79.008
1576.0	78.968
1577.0	78.902
1578.0	78.947
1579.0	78.954
1580.0	78.950
1581.0	78.895
1582.0	78.801
1583.0	78.817
1584.0	78.805
1585.0	78.816
1586.0	78.720
1587.0	78.745
1588.0	78.785
1589.0	78.789
1590.0	78.735
1591.0	78.717
1592.0	78.724
1593.0	78.683
1594.0	78.582
1595.0	78.547
1596.0	78.547
1597.0	78.582
1598.0	78.549
1599.0	78.473
1600.0	78.386
